-0.000202423391350225,8.335
-0.00232452846830415,8.3375
-0.0121841478722309,8.34
-0.0385108090815347,8.3425
-0.082004987550339,8.345
-0.126370085899554,8.3475
-0.154933419669491,8.35
-0.178393209377889,8.3525
-0.218554831521361,8.355
-0.251279815871136,8.3575
-0.205604157077702,8.36
-0.0569778930143368,8.3625
0.112233495332726,8.365
0.19693093229334,8.3675
0.191884415479415,8.37
0.17671065800074,8.3725
0.198602746601018,8.375
0.233632328129506,8.3775
0.257217780072569,8.38
0.283899125017191,8.3825
0.320456080754452,8.385
0.33538851191326,8.3875
0.306648892379417,8.39
0.262364524706415,8.3925
0.23990193046868,8.395
0.232521817323373,8.3975
0.213616532244531,8.4
0.190028631423495,8.4025
0.187049185357588,8.405
0.1950084362348,8.4075
0.177256519486017,8.41
0.128197921935787,8.4125
0.0832885124980575,8.415
0.0669816321029928,8.4175
0.0616608933232996,8.42
0.0382138919737923,8.4225
-0.00312489352865253,8.425
-0.0381268427386866,8.4275
-0.0558207967741889,8.43
-0.0690083182796539,8.4325
-0.0843426981215875,8.435
-0.0879878377895743,8.4375
-0.0758373995098174,8.44
-0.0712395560717592,8.4425
-0.0903920632369928,8.445
-0.113673271076101,8.4475
-0.115842832131705,8.45
-0.10592393860528,8.4525
-0.112937304297968,8.455
-0.144023365701329,8.4575
-0.178014424543681,8.46
-0.19557671504256,8.4625
-0.198961630202167,8.465
-0.20160127041338,8.4675
-0.210334138068585,8.47
-0.221407084255724,8.4725
-0.227285710785672,8.475
-0.225669785606879,8.4775
-0.223984023124565,8.48
-0.229049096054245,8.4825
-0.230602857197119,8.485
-0.21083858653807,8.4875
-0.176056916343806,8.49
-0.156491726315881,8.4925
-0.164366637397171,8.495
-0.177036625013038,8.4975
-0.174350945960724,8.5
-0.166155775947395,8.5025
-0.167678975910536,8.505
-0.173793104001493,8.5075
-0.174908361315432,8.51
-0.174855307319891,8.5125
-0.175259243832048,8.515
-0.163561128920554,8.5175
-0.136057277451049,8.52
-0.114679719106079,8.5225
-0.118558336403251,8.525
-0.132114576152285,8.5275
-0.126208103833498,8.53
-0.103226228142179,8.5325
-0.0940063797294478,8.535
-0.11059676879266,8.5375
-0.128478694854924,8.54
-0.122160838257769,8.5425
-0.0971707973470342,8.545
-0.0756622532059018,8.5475
-0.0643786690953281,8.55
-0.0513248601378898,8.5525
-0.0292458667917587,8.555
-0.00751847345539591,8.5575
0.00241481495476359,8.56
0.00171725877524295,8.5625
-0.000818457729462596,8.565
0.00203577823868417,8.5675
0.0148719509325587,8.57
0.0341465454931109,8.5725
0.0418484003905642,8.575
0.0230999436332364,8.5775
-0.00781641849646146,8.58
-0.0212469558731929,8.5825
-0.0144313982198842,8.585
-0.01401475164792,8.5875
-0.0305397523056348,8.59
-0.039127841870924,8.5925
-0.0203330244747087,8.595
0.00500365102815967,8.5975
0.00449879333705749,8.6
-0.0203216489136541,8.6025
-0.0427180151407014,8.605
-0.0511347328906249,8.6075
-0.0532573720916313,8.61
-0.0496893528645283,8.6125
-0.0342099343733218,8.615
-0.0155726341597826,8.6175
-0.00789353966235518,8.62
-0.00177060968596723,8.6225
0.0229615758098305,8.625
0.0583774154554497,8.6275
0.0774886083456112,8.63
0.0810399043098937,8.6325
0.0980778618592907,8.635
0.136043726231561,8.6375
0.164767803511475,8.64
0.159040992602806,8.6425
0.130817243131065,8.645
0.108975776346137,8.6475
0.10517205756229,8.65
0.110697960770517,8.6525
0.116403306263655,8.655
0.12092798433444,8.6575
0.120219200099215,8.66
0.106768500107736,8.6625
0.0880989159278111,8.665
0.0878618404603621,8.6675
0.114022812445316,8.67
0.14443444797816,8.6725
0.159369025394088,8.675
0.164679901135157,8.6775
0.166002528326725,8.68
0.152366818331899,8.6825
0.127721168776606,8.685
0.121202883662619,8.6875
0.139255423866665,8.69
0.147521895787417,8.6925
0.128685887676022,8.695
0.115020713385384,8.6975
0.132240712189173,8.7
0.155738639195801,8.7025
0.157611964559329,8.705
0.153624273789225,8.7075
0.164936086544021,8.71
0.173390683202409,8.7125
0.156454699014576,8.715
0.133095001275224,8.7175
0.133115652923731,8.72
0.146402759513167,8.7225
0.142649351289398,8.725
0.124647546830101,8.7275
0.123926085865436,8.73
0.149190539251109,8.7325
0.172846210934309,8.735
0.174043911917556,8.7375
0.167218472765328,8.74
0.172726357395485,8.7425
0.181091626165506,8.745
0.171635640186349,8.7475
0.152502121727582,8.75
0.148950889142556,8.7525
0.15785308957489,8.755
0.151628611827268,8.7575
0.126951547107991,8.76
0.109431451327968,8.7625
0.107918605462764,8.765
0.105425976581094,8.7675
0.0987788077163935,8.77
0.105975841729753,8.7725
0.127546081115348,8.775
0.138385206613209,8.7775
0.12811928323514,8.78
0.117304132012997,8.7825
0.121201211548072,8.785
0.12633668790744,8.7875
0.119369356536437,8.79
0.112949818133763,8.7925
0.119870842728444,8.795
0.123198983757334,8.7975
0.102310669574665,8.8
0.0736158556935062,8.8025
0.0688203343425427,8.805
0.0800639078501301,8.8075
0.0691059191677476,8.81
0.0329251126205664,8.8125
0.0142758283317935,8.815
0.0351575510994715,8.8175
0.0638806265747995,8.82
0.0663996932195865,8.8225
0.0512858308748051,8.825
0.0437453485598154,8.8275
0.0477682664099133,8.83
0.0524959013754088,8.8325
0.0505042301323781,8.835
0.0364361595460074,8.8375
0.00828524717995162,8.84
-0.0211976864630237,8.8425
-0.0316185604251804,8.845
-0.0204990328013668,8.8475
-0.0088803769922649,8.85
-0.0136129651342071,8.8525
-0.0225538701718685,8.855
-0.0111360770500555,8.8575
0.01557693808567,8.86
0.0175640109171992,8.8625
-0.0271758631750878,8.865
-0.0818064717668346,8.8675
-0.0908441808986677,8.87
-0.0538917706804922,8.8725
-0.0279321438512963,8.875
-0.0499743161308616,8.8775
-0.0863350183792097,8.88
-0.0827809036139412,8.8825
-0.0457783418715277,8.885
-0.0320143998404284,8.8875
-0.0602675380784191,8.89
-0.085880339011255,8.8925
-0.0755064616281998,8.895
-0.0539928296649672,8.8975
-0.0545237600169625,8.9
-0.0709570796157034,8.9025
-0.0857034043297945,8.905
-0.102429023901019,8.9075
-0.124611442989212,8.91
-0.136789680301823,8.9125
-0.13214823240408,8.915
-0.129898229685047,8.9175
-0.141416835148105,8.92
-0.144400842646928,8.9225
-0.117387189593534,8.925
-0.0804241350825457,8.9275
-0.0728022764173365,8.93
-0.101593752544593,8.9325
-0.135914826688021,8.935
-0.14554793569796,8.9375
-0.128923917285041,8.94
-0.107650798095194,8.9425
-0.102860066993993,8.945
-0.114099082285685,8.9475
-0.12055085093269,8.95
-0.108002431348097,8.9525
-0.088997433274374,8.955
-0.0855173703680001,8.9575
-0.0992463039506893,8.96
-0.114466753719362,8.9625
-0.122148118661939,8.965
-0.123408589623869,8.9675
-0.119517316016534,8.97
-0.116797502120921,8.9725
-0.127413163573731,8.975
-0.14763891723296,8.9775
-0.153954929122251,8.98
-0.137739183967415,8.9825
-0.121386367900408,8.985
-0.122668422077997,8.9875
-0.127162383647771,8.99
-0.115779114683886,8.9925
-0.0990321147739536,8.995
-0.101429012606618,8.9975
-0.123586537527391,9
-0.142100570095134,9.0025
-0.143930132061333,9.005
-0.140105178586794,9.0075
-0.142483052561216,9.01
-0.146436421578393,9.0125
-0.143793086829933,9.015
-0.137423719501939,9.0175
-0.13456345315632,9.02
-0.135583087241109,9.0225
-0.136454754138272,9.025
-0.136367945585924,9.0275
-0.136855409304088,9.03
-0.137252974164161,9.0325
-0.135924179843941,9.035
-0.132280499674828,9.0375
-0.125482363717161,9.04
-0.117049655169846,9.0425
-0.113215499234966,9.045
-0.115934497318062,9.0475
-0.11691035366538,9.05
-0.110723640499722,9.0525
-0.103691416805708,9.055
-0.0986104656238632,9.0575
-0.0865741178175049,9.06
-0.067942499147289,9.0625
-0.0621131825273233,9.065
-0.0781095950894521,9.0675
-0.094430159714488,9.07
-0.0897254220330944,9.0725
-0.0758360515913141,9.075
-0.0746721330972836,9.0775
-0.07802073456285,9.08
-0.0630518824032976,9.0825
-0.0378186494679391,9.085
-0.0324218611507679,9.0875
-0.0470125340124656,9.09
-0.0512502148969361,9.0925
-0.0406131465849489,9.095
-0.0470538864490487,9.0975
-0.0788578873333474,9.1
-0.095590788905439,9.1025
-0.0683598410341241,9.105
-0.0268032161766458,9.1075
-0.0152315899564277,9.11
-0.0320205306772689,9.1125
-0.0457358982813092,9.115
-0.0484913229328429,9.1175
-0.0579090306630288,9.12
-0.078990924006601,9.1225
-0.0966867849747195,9.125
-0.102808880223699,9.1275
-0.104289635924597,9.13
-0.1034851429864,9.1325
-0.0927788242125944,9.135
-0.0739864236333888,9.1375
-0.0615800381584709,9.14
-0.0578972711580281,9.1425
-0.0471194713580208,9.145
-0.0237962790333455,9.1475
-0.00254986671987034,9.15
0.0102287241046326,9.1525
0.0251424188184303,9.155
0.0410094430658478,9.1575
0.0403838986620617,9.16
0.0240619361774911,9.1625
0.0162305093434195,9.165
0.0242264959785183,9.1675
0.0274553279598607,9.17
0.0201006134778926,9.1725
0.0288056943338358,9.175
0.0641823366618588,9.1775
0.086590528331115,9.18
0.0559749458768139,9.1825
-0.00369755969620122,9.185
-0.0316391956785008,9.1875
-0.0152663164840032,9.19
-0.00308311446843568,9.1925
-0.0262119169379219,9.195
-0.0534090563058957,9.1975
-0.0468341405346955,9.2
-0.0228756594046152,9.2025
-0.022130620316792,9.205
-0.0460916302538049,9.2075
-0.064340335018164,9.21
-0.0689237776584825,9.2125
-0.0806520918059802,9.215
-0.109803799293635,9.2175
-0.149527510248389,9.22
-0.20384831325635,9.2225
-0.288252027377749,9.225
-0.406776770432563,9.2275
-0.554043283675314,9.23
-0.72644790613628,9.2325
-0.901907319064649,9.235
-1.01842598445263,9.2375
-1.00114448976335,9.24
-0.810599987240471,9.2425
-0.447424559341594,9.245
0.0839562779443008,9.2475
0.778809612469783,9.25
1.57139237828998,9.2525
2.29811864355116,9.255
2.77910836445149,9.2575
2.94463939536279,9.26
2.84078469250139,9.2625
2.51748762902274,9.265
1.98040742774305,9.2675
1.27541425220029,9.27
0.548986324915019,9.2725
-0.0427438258113514,9.275
-0.464675788941882,9.2775
-0.791003037130685,9.28
-1.0746101116302,9.2825
-1.28331001673003,9.285
-1.37159887721417,9.2875
-1.36037591880773,9.29
-1.31116239810627,9.2925
-1.24894705600412,9.295
-1.1484167906838,9.2975
-0.990639405590432,9.3
-0.801162908768511,9.3025
-0.62418249181991,9.305
-0.48173702314457,9.3075
-0.370200486624922,9.31
-0.27935969182895,9.3125
-0.199794272913721,9.315
-0.12232053168697,9.3175
-0.0451765605142903,9.32
0.0222481176688898,9.3225
0.0732376651685541,9.325
0.116689387348518,9.3275
0.162968728125765,9.33
0.20052954328369,9.3325
0.208494214110373,9.335
0.195871813622758,9.3375
0.199283841190449,9.34
0.229246892497135,9.3425
0.251757583019573,9.345
0.243191272561229,9.3475
0.227487723274777,9.35
0.232137803175282,9.3525
0.244277546811789,9.355
0.242910108840521,9.3575
0.239461553888455,9.36
0.250592463036561,9.3625
0.261612068074597,9.365
0.251923291148408,9.3675
0.231957633356608,9.37
0.226168001536619,9.3725
0.23985327896788,9.375
0.261228344919424,9.3775
0.275433258216991,9.38
0.266707636081474,9.3825
0.230352840985753,9.385
0.188460807589305,9.3875
0.171406803475583,9.39
0.182161183052002,9.3925
0.198327568701978,9.395
0.205386716543205,9.3975
0.208395235253633,9.4
0.214927251150254,9.4025
0.221848599747064,9.405
0.215752961912091,9.4075
0.182422524953341,9.41
0.128062120335673,9.4125
0.0887952948209089,9.415
0.094661614624432,9.4175
0.125589088665235,9.42
0.134771353123914,9.4225
0.115588083517162,9.425
0.106534182567479,9.4275
0.124240085819207,9.43
0.135040024102082,9.4325
0.109957801846568,9.435
0.0700988875524963,9.4375
0.0551242163608513,9.44
0.0745297764086442,9.4425
0.107582634215679,9.445
0.128419676282123,9.4475
0.120502721374558,9.45
0.0881323476013698,9.4525
0.0607987585158813,9.455
0.0658613256426521,9.4575
0.0920228937926222,9.46
0.101194417430278,9.4625
0.0829997909178054,9.465
0.0722335421918179,9.4675
0.0966772618876702,9.47
0.131398486263971,9.4725
0.130411473702024,9.475
0.0896914983425138,9.4775
0.0517359493504458,9.48
0.0503156396337263,9.4825
0.0716233619108786,9.485
0.0773328437579012,9.4875
0.0561499478044533,9.49
0.0378262746578951,9.4925
0.0512116975193899,9.495
0.0832005473592769,9.4975
0.0957413634425222,9.5
0.0749614376616382,9.5025
0.0438550416386067,9.505
0.0289535906679235,9.5075
0.032358398328307,9.51
0.0389721256731378,9.5125
0.0370462126780114,9.515
0.0247081215096245,9.5175
0.00595352051315895,9.52
-0.00868201656014642,9.5225
-0.00395571080436641,9.525
0.0201907062910339,9.5275
0.0339554417469136,9.53
0.00850301545827559,9.5325
-0.0375934942758637,9.535
-0.0564077990926104,9.5375
-0.0416710511656456,9.54
-0.0418209489784758,9.5425
-0.0871653145821057,9.545
-0.143210482771548,9.5475
-0.159648875169949,9.55
-0.136418182271732,9.5525
-0.115808650435374,9.555
-0.124343166457252,9.5575
-0.144768978284569,9.56
-0.146484394524849,9.5625
-0.129548858589332,9.565
-0.122073339012365,9.5675
-0.134363806268746,9.57
-0.140234911550749,9.5725
-0.116278230391207,9.575
-0.075541871682954,9.5775
-0.0442773174526514,9.58
-0.0269580621480321,9.5825
-0.0145694388874646,9.585
-0.00877670512544812,9.5875
-0.0131006100680503,9.59
-0.0116802627298733,9.5925
0.0140570726139562,9.595
0.0491817020072344,9.5975
0.0562755376466842,9.6
0.0292183908522747,9.6025
0.00528956419930628,9.605
0.0109880894456634,9.6075
0.0261459815605725,9.61
0.0199437489435744,9.6125
-0.00517350855797497,9.615
-0.0269073067059861,9.6175
-0.0377937426019611,9.62
-0.0450043104427941,9.6225
-0.051119143621793,9.625
-0.0533205678921919,9.6275
-0.0526516492175508,9.63
-0.0509743093213791,9.6325
-0.0445444292587203,9.635
-0.0308830812330538,9.6375
-0.0176844119355893,9.64
-0.0143491311614365,9.6425
-0.0167715991807609,9.645
-0.0119244514734849,9.6475
0.000959046270900266,9.65
0.00447323697841134,9.6525
-0.0151799829658116,9.655
-0.0461609688196735,9.6575
-0.0603335684808176,9.66
-0.0464172830107529,9.6625
-0.0241178817620608,9.665
-0.0163181307389094,9.6675
-0.0167355513245145,9.67
-0.00294596712407057,9.6725
0.0246465466168076,9.675
0.0415941205578757,9.6775
0.0366596037027479,9.68
0.023836173624672,9.6825
0.0144364709523267,9.685
0.00312888949278911,9.6875
-0.0139669460862917,9.69
-0.0289873061590573,9.6925
-0.0327117402334882,9.695
-0.0221305168016891,9.6975
-0.0027013698292413,9.7
0.0107605918384772,9.7025
0.00889305903874224,9.705
0.00475078778246663,9.7075
0.0149966907397074,9.71
0.0258782261276459,9.7125
0.00838083950295046,9.715
-0.0300914244506,9.7175
-0.0462335329273891,9.72
-0.025094800201119,9.7225
-0.00525124271474153,9.725
-0.0172491495266446,9.7275
-0.0337599835361319,9.73
-0.0160332525524091,9.7325
0.0184092147851418,9.735
0.0197415386123566,9.7375
-0.0155669933548848,9.74
-0.037747918378851,9.7425
-0.0179437230885421,9.745
0.0133881855571319,9.7475
0.0152676721704142,9.75
-0.0118685317997966,9.7525
-0.0408716674657533,9.755
-0.0565729029445363,9.7575
-0.0597147080226758,9.76
-0.0522752434517891,9.7625
-0.038483646688853,9.765
-0.0283146490738434,9.7675
-0.025236598751559,9.77
-0.0204522561540739,9.7725
-0.0104025246231957,9.775
-0.00816110142497106,9.7775
-0.0250608948965259,9.78
-0.05156264145746,9.7825
-0.0693346645849503,9.785
-0.0743535569368914,9.7875
-0.0761416366888379,9.79
-0.0807689574933989,9.7925
-0.0864347754350375,9.795
-0.0914710877259993,9.7975
-0.0960863890683298,9.8
-0.098448843580302,9.8025
-0.0968047287595524,9.805
-0.0933190431209407,9.8075
-0.0900517494521971,9.81
-0.0847222825537323,9.8125
-0.0766923228134254,9.815
-0.0716235406368948,9.8175
-0.0713748595613414,9.82
-0.0663779688483445,9.8225
-0.0502208696908995,9.825
-0.0348402358705326,9.8275
-0.0368272924814077,9.83
-0.0530179084747859,9.8325
-0.0647061708323555,9.835
-0.066817564470052,9.8375
-0.0775081330156089,9.84
-0.108403191690422,9.8425
-0.137194848331767,9.845
-0.131288965580528,9.8475
-0.0963918694361902,9.85
-0.0734107508283192,9.8525
-0.0779832418876112,9.855
-0.0753445751975101,9.8575
-0.0378905726897337,9.86
0.00523684959504844,9.8625
0.0129034739287444,9.865
-0.00325245366223087,9.8675
-0.00744401605069028,9.87
-0.00800119055171702,9.8725
-0.0373111580978805,9.875
-0.0805735762788712,9.8775
-0.0913925616129416,9.88
-0.0724241719871496,9.8825
-0.0726776777924948,9.885
-0.100783200918105,9.8875
-0.107994022373724,9.89
-0.0720871873942279,9.8925
-0.0362979000110455,9.895
-0.0410580272756467,9.8975
-0.0679526810043288,9.9
-0.0779416918633001,9.9025
-0.0669195588997298,9.905
-0.0580485371829816,9.9075
-0.0619873821704541,9.91
-0.0642678413820427,9.9125
-0.0458821916015656,9.915
-0.010795226376559,9.9175
0.00893404665744152,9.92
-0.0151441188014673,9.9225
-0.0693266148480724,9.925
-0.106710444887931,9.9275
-0.102515227820088,9.93
-0.082047946612228,9.9325
-0.0782462462454313,9.935
-0.0833742897177377,9.9375
-0.0719796784257666,9.94
-0.0516744449789245,9.9425
-0.0487850083544029,9.945
-0.0569225804960096,9.9475
-0.0479953697510546,9.95
-0.026753885501634,9.9525
-0.0257526083616848,9.955
-0.0484955854177031,9.9575
-0.0619881759224538,9.96
-0.0481408092364454,9.9625
-0.0266104163329732,9.965
-0.0219130224440465,9.9675
-0.0338813568506744,9.97
-0.0447061066077782,9.9725
-0.039347917175398,9.975
-0.0203632717257959,9.9775
-0.0113859007803095,9.98
-0.0354520659708176,9.9825
-0.0802192483374522,9.985
-0.100385672825959,9.9875
-0.0703869547671019,9.99
-0.02164076594384,9.9925
-0.00604007838428844,9.995
-0.0290628038313654,9.9975
-0.046251220882786,10
-0.0286123802077269,10.0025
-0.000177005598974711,10.005
0.0030805728668703,10.0075
-0.0166681562333442,10.01
-0.0295238468771712,10.0125
-0.0187404203098513,10.015
0.00453987330163011,10.0175
0.0158591118383285,10.02
0.000641796201187095,10.0225
-0.0290836319146754,10.025
-0.0433427352199718,10.0275
-0.0274772483113193,10.03
-0.00166202861270517,10.0325
0.00126301487279359,10.035
-0.025301604566941,10.0375
-0.0535931088422893,10.04
-0.0545267893041056,10.0425
-0.0297322829107963,10.045
-0.00264467877780439,10.0475
0.0118055430242215,10.05
0.014458406897337,10.0525
0.00895755318513802,10.055
-0.000225736139541521,10.0575
-0.00333128100841096,10.06
0.00316871250308515,10.0625
0.00477944245960732,10.065
-0.0125146282602233,10.0675
-0.0334522516637739,10.07
-0.0268922177831356,10.0725
0.00636396366041955,10.075
0.0284319087508024,10.0775
0.0232344545472011,10.08
0.0263074867926515,10.0825
0.0650597458971114,10.085
0.103961596430923,10.0875
0.0950783499574575,10.09
0.0547917426618729,10.0925
0.0364374608707059,10.095
0.0487176604440523,10.0975
0.0581984820792021,10.1
0.0556541313056904,10.1025
0.0606216568434195,10.105
0.0689884217195602,10.1075
0.0530551524597939,10.11
0.0136020575697823,10.1125
-0.0172650637613376,10.115
-0.0284041621622073,10.1175
-0.0407191663709664,10.12
-0.0594267055525485,10.1225
-0.0576822804002005,10.125
-0.0241458893607688,10.1275
0.00783543419088756,10.13
0.000806278095969726,10.1325
-0.0437399751222025,10.135
-0.106614103677344,10.1375
-0.191592467470567,10.14
-0.316103809193066,10.1425
-0.476661838957194,10.145
-0.64886354145619,10.1475
-0.808178661890165,10.15
-0.927220186612376,10.1525
-0.96349894904457,10.155
-0.870520970042155,10.1575
-0.616073156337927,10.16
-0.183443367659608,10.1625
0.425792306376818,10.165
1.16697010090451,10.1675
1.92976376513887,10.17
2.55904894438558,10.1725
2.92198199423062,10.175
2.96906915100659,10.1775
2.73112516878871,10.18
2.26430939409348,10.1825
1.62097150568108,10.185
0.87928801068748,10.1875
0.161451475091034,10.19
-0.423582222935831,10.1925
-0.851658403254147,10.195
-1.16753958713115,10.1975
-1.4065606420271,10.2
-1.56674699156573,10.2025
-1.64822768844481,10.205
-1.6719282511055,10.2075
-1.64892426684811,10.21
-1.56646256328522,10.2125
-1.41940003877168,10.215
-1.2330370187535,10.2175
-1.04125290651598,10.22
-0.855025603514951,10.2225
-0.664171417679164,10.225
-0.466849237304253,10.2275
-0.288126249037477,10.23
-0.159821769648704,10.2325
-0.0812930974282091,10.235
-0.015623360920434,10.2375
0.0640458318080726,10.24
0.139159377730655,10.2425
0.177307234453655,10.245
0.189083302663699,10.2475
0.219814985356335,10.25
0.279554584107405,10.2525
0.322275152777988,10.255
0.316751215755921,10.2575
0.296260289706613,10.26
0.304097589548153,10.2625
0.329725334006755,10.265
0.3394193897,10.2675
0.335205524528476,10.27
0.340656789648691,10.2725
0.354145846876416,10.275
0.355972200395441,10.2775
0.346550885173582,10.28
0.343821604397874,10.2825
0.348024561737807,10.285
0.336778782786272,10.2875
0.301187613204821,10.29
0.266846452847058,10.2925
0.262312444284031,10.295
0.276947533898235,10.2975
0.273764994066445,10.3
0.243134065883143,10.3025
0.215953255328893,10.305
0.214304923191223,10.3075
0.216128376704381,10.31
0.190313817003747,10.3125
0.148868497478645,10.315
0.133281871790232,10.3175
0.15278949874388,10.32
0.170686729111271,10.3225
0.160575453914158,10.325
0.141675089801144,10.3275
0.14104629980198,10.33
0.152107800189441,10.3325
0.152485078441705,10.335
0.138396970491964,10.3375
0.119958230636416,10.34
0.10007509509119,10.3425
0.0775432114403872,10.345
0.0612646524168531,10.3475
0.0644329815371946,10.35
0.0849028279629844,10.3525
0.101616005479425,10.355
0.0955752259803012,10.3575
0.0715014441776315,10.36
0.0531228763084103,10.3625
0.0540533970401395,10.365
0.0582875513087671,10.3675
0.0412140260894761,10.37
0.00957828430356461,10.3725
-0.00239603141299005,10.375
0.0130977337415145,10.3775
0.0202265372966937,10.38
0.000969445560178916,10.3825
-0.00537236186628759,10.385
0.0337218244074891,10.3875
0.0788560005631806,10.39
0.0755600276343121,10.3925
0.0454835477095574,10.395
0.0519773825707922,10.3975
0.093221937949021,10.4
0.104804653143086,10.4025
0.0663607912652316,10.405
0.0313904424844169,10.4075
0.0369784274583513,10.41
0.0499936234660187,10.4125
0.030971102689176,10.415
-0.00027483686374763,10.4175
-0.000476291169499078,10.42
0.0283314331976195,10.4225
0.0470519727018447,10.425
0.0429899026232292,10.4275
0.0441168654953837,10.43
0.0646547671896895,10.4325
0.0728042722462466,10.435
0.0365472245568079,10.4375
-0.0215255366951527,10.44
-0.0488515693697811,10.4425
-0.0347623096754603,10.445
-0.023102856353419,10.4475
-0.0481029351167427,10.45
-0.0896994583680205,10.4525
-0.10964017455987,10.455
-0.106826173760536,10.4575
-0.110157602993743,10.46
-0.130315522182418,10.4625
-0.148162013277127,10.465
-0.148700481243811,10.4675
-0.141669664577121,10.47
-0.143261775391816,10.4725
-0.15458259458872,10.475
-0.166208392086798,10.4775
-0.172207294000735,10.48
-0.170137144211935,10.4825
-0.156662192488234,10.485
-0.134843321180089,10.4875
-0.119105371762807,10.49
-0.121250521508364,10.4925
-0.134282410201958,10.495
-0.137401987000232,10.4975
-0.116675142132318,10.5
-0.0808728033598817,10.5025
-0.0580272378420843,10.505
-0.0688164117707523,10.5075
-0.0996559524064391,10.51
-0.115696430260171,10.5125
-0.105321845512134,10.515
-0.0908505961275964,10.5175
-0.0876994352563517,10.52
-0.0802151762044027,10.5225
-0.0532207585005677,10.525
-0.0233630682944923,10.5275
-0.0166851917905728,10.53
-0.0279998939400007,10.5325
-0.0278228107868556,10.535
-0.00793036939346825,10.5375
0.00809450056138405,10.54
0.0075308141844877,10.5425
0.00931830266291683,10.545
0.0253247831668492,10.5475
0.0364179130369659,10.55
0.0317405004191926,10.5525
0.0344421475696355,10.555
0.0565255388742216,10.5575
0.0652033705545505,10.56
0.0339585457663583,10.5625
-0.0057213630656365,10.565
-0.00982530061381404,10.5675
0.00762785197176058,10.57
0.00136354345174794,10.5725
-0.0264714177721233,10.575
-0.0309274486775668,10.5775
-0.00113240222196424,10.58
0.0216032830850728,10.5825
0.00884666713861637,10.585
-0.0146561596999123,10.5875
-0.0107098889111343,10.59
0.0177381509622392,10.5925
0.0303814861866779,10.595
0.00429566964883457,10.5975
-0.0297377240559388,10.6
-0.0232199675315227,10.6025
0.0206346597111086,10.605
0.0456599514824143,10.6075
0.0229768759688089,10.61
-0.00563485173412032,10.6125
0.0098447643325682,10.615
0.05682317502027,10.6175
0.0842594504443364,10.62
0.0720371295932689,10.6225
0.045894998732359,10.625
0.0385567139887468,10.6275
0.0564551605889333,10.63
0.0781224633942303,10.6325
0.0803836221542248,10.635
0.0690923669872429,10.6375
0.0713444250873189,10.64
0.0894068895883103,10.6425
0.0876666917894731,10.645
0.0465136556467214,10.6475
0.00312259559047995,10.65
0.00356070347870702,10.6525
0.0326196284166178,10.655
0.0368090812068855,10.6575
0.0101891528441913,10.66
0.00522234347630027,10.6625
0.0498783685717197,10.665
0.102543778891992,10.6675
0.111460511851783,10.67
0.0839760562728993,10.6725
0.067162637684636,10.675
0.0778251282982728,10.6775
0.0854208736885276,10.68
0.0644792886182883,10.6825
0.0311948545708062,10.685
0.0136103859708006,10.6875
0.0124623586694979,10.69
0.0109125500230171,10.6925
0.00159242543288252,10.695
-0.0123912721890692,10.6975
-0.0246467064295045,10.7
-0.0251131788077617,10.7025
-0.0124268061105567,10.705
-0.0074041402045493,10.7075
-0.028810103743459,10.71
-0.0571824822965855,10.7125
-0.0544462480086163,10.715
-0.0224080368998339,10.7175
-0.00603296061284614,10.72
-0.026989345860809,10.7225
-0.0506669302184641,10.725
-0.0420212875851387,10.7275
-0.0202933351207638,10.73
-0.0238843497980115,10.7325
-0.0474020859845562,10.735
-0.0557343369226765,10.7375
-0.0428813504284425,10.74
-0.0323697043901329,10.7425
-0.0308791422570766,10.745
-0.0251954279375617,10.7475
-0.0174527986502651,10.75
-0.0218855526376764,10.7525
-0.0307581589082972,10.755
-0.0217038254541424,10.7575
0.000694451052678791,10.76
0.00507451767020045,10.7625
-0.0182097357980224,10.765
-0.0387640515264792,10.7675
-0.0308168798114755,10.77
-0.0117941982707979,10.7725
-0.0151983389029695,10.775
-0.0433925971433811,10.7775
-0.0720879449930787,10.78
-0.0872439210904714,10.7825
-0.0906494561521053,10.785
-0.0822711184245453,10.7875
-0.0658860227601479,10.79
-0.0582996446343577,10.7925
-0.0646051410080811,10.795
-0.0630781663126376,10.7975
-0.0418447084205343,10.8
-0.0230385543461888,10.8025
-0.0219501753842771,10.805
-0.0170349760666936,10.8075
0.00713100834472896,10.81
0.0235933027953109,10.8125
0.00574588791641839,10.815
-0.025289093807742,10.8175
-0.0326032958945813,10.82
-0.0185569386038522,10.8225
-0.0135592544390192,10.825
-0.0277836158799721,10.8275
-0.0451364193796553,10.83
-0.0528394785502433,10.8325
-0.0518509193718075,10.835
-0.0483904558741788,10.8375
-0.0525276170570754,10.84
-0.0708744480136923,10.8425
-0.088725621237946,10.845
-0.0808012297750822,10.8475
-0.0499801842119635,10.85
-0.0276102348122726,10.8525
-0.0253978118261739,10.855
-0.0211936866284652,10.8575
-0.0052142085436313,10.86
-0.00131207883566714,10.8625
-0.022275882413378,10.865
-0.0407288672754997,10.8675
-0.0304625302673499,10.87
-0.00725048312259186,10.8725
-0.000761174744621923,10.875
-0.00821085789060533,10.8775
-0.00539773953050587,10.88
0.00975759897392454,10.8825
0.0143210549429327,10.885
-0.00240784828123031,10.8875
-0.0240148412810051,10.89
-0.034106581055966,10.8925
-0.0393227578792088,10.895
-0.0529159595250386,10.8975
-0.0665500495218015,10.9
-0.0593916402952981,10.9025
-0.0367846189071682,10.905
-0.035004555166362,10.9075
-0.0718611880831452,10.91
-0.114137789415603,10.9125
-0.119654336156958,10.915
-0.0953143426558152,10.9175
-0.0799777469123443,10.92
-0.0796556657267894,10.9225
-0.0617454210259549,10.925
-0.0173358215016817,10.9275
0.0140210981103241,10.93
0.00130742797715473,10.9325
-0.0299983368093371,10.935
-0.0341385240160869,10.9375
-0.00608056874556528,10.94
0.0211825794621801,10.9425
0.0245240591749188,10.945
0.0110758265791592,10.9475
-0.000629569175515739,10.95
-0.00259642960861028,10.9525
-0.00315257678193448,10.955
-0.015126947918431,10.9575
-0.0355566518116336,10.96
-0.0453665127808454,10.9625
-0.0370434279878355,10.965
-0.0273775413745453,10.9675
-0.0297522636917971,10.97
-0.0327585824189892,10.9725
-0.0243562537789952,10.975
-0.0171157496627899,10.9775
-0.026497759197048,10.98
-0.0421357125981529,10.9825
-0.0452569527697286,10.985
-0.0397118352680956,10.9875
-0.0439560791307398,10.99
-0.065041359652763,10.9925
-0.0976265252435394,10.995
-0.139534876391587,10.9975
-0.199412565613893,11
-0.295082652315858,11.0025
-0.440751585442733,11.005
-0.623840961655864,11.0075
-0.800747082002954,11.01
-0.928580362855021,11.0125
-0.989311725745916,11.015
-0.964674724029073,11.0175
-0.806417985379258,11.02
-0.46549595478548,11.0225
0.0569207732334573,11.025
0.711045028236465,11.0275
1.42546919237362,11.03
2.0978953971188,11.0325
2.59342455850131,11.035
2.8082030959203,11.0375
2.72681923444732,11.04
2.39171582904435,11.0425
1.84975627283796,11.045
1.16451581783322,11.0475
0.445469961806134,11.05
-0.187313503818402,11.0525
-0.669557584247785,11.055
-1.01083745775863,11.0575
-1.25675693672677,11.06
-1.44165312100427,11.0625
-1.56807382545891,11.065
-1.6191226687956,11.0675
-1.58422596297294,11.07
-1.47526700587236,11.0725
-1.32507828315788,11.075
-1.16700579931729,11.0775
-1.00811201101621,11.08
-0.833033415149708,11.0825
-0.64334518173728,11.085
-0.470692322348618,11.0875
-0.335265741363821,11.09
-0.220507409007076,11.0925
-0.110947869457703,11.095
-0.0235076806502556,11.0975
0.0265591141097994,11.1
0.0617853556898391,11.1025
0.11212606368764,11.105
0.168703644251472,11.1075
0.199439301513737,11.11
0.200141244897012,11.1125
0.200996821374055,11.115
0.221353828145838,11.1175
0.242277369620702,11.12
0.237453085255401,11.1225
0.215535504144349,11.125
0.209447667617321,11.1275
0.228891716021723,11.13
0.247579587656152,11.1325
0.241643205421991,11.135
0.221288376200366,11.1375
0.213544984457983,11.14
0.224128669051217,11.1425
0.231377383361412,11.145
0.21900598365571,11.1475
0.199344207660801,11.15
0.192411634731838,11.1525
0.194924817818735,11.155
0.188183718867806,11.1575
0.167860233877485,11.16
0.148377899430635,11.1625
0.143970588488743,11.165
0.156643509035006,11.1675
0.175527173623597,11.17
0.183164946081936,11.1725
0.171247780170698,11.175
0.1506850157115,11.1775
0.137808871256764,11.18
0.133921996486297,11.1825
0.1271099256078,11.185
0.111717619136312,11.1875
0.0991070489053785,11.19
0.105581685426001,11.1925
0.127406411947976,11.195
0.134901583069742,11.1975
0.105678686273104,11.2
0.0593300680552751,11.2025
0.0376297205486797,11.205
0.0495624948821381,11.2075
0.0595004608739581,11.21
0.0385416690836799,11.2125
0.00671564424875792,11.215
0.00340805311456834,11.2175
0.0273510567990458,11.22
0.0382401236651111,11.2225
0.0197532274078116,11.225
0.00326645623998162,11.2275
0.0152043216048993,11.23
0.0370063687476846,11.2325
0.0398021565344991,11.235
0.0306760239654206,11.2375
0.0376589187913771,11.24
0.0642527469808778,11.2425
0.0840436987634942,11.245
0.0775333502671476,11.2475
0.056721569181187,11.25
0.0486420426663657,11.2525
0.0620524330328964,11.255
0.077181602147496,11.2575
0.0714175171631584,11.26
0.0498090163787971,11.2625
0.0373770711218639,11.265
0.041999391984219,11.2675
0.044276514753913,11.27
0.030722825337037,11.2725
0.0175812832345028,11.275
0.0271354726601603,11.2775
0.0516603497701981,11.28
0.0595779712064238,11.2825
0.0382467064080667,11.285
0.012963130381931,11.2875
0.0114946814778841,11.29
0.0229744123421071,11.2925
0.0129777269331234,11.295
-0.0243204031400943,11.2975
-0.0530360289792756,11.3
-0.0436630622409491,11.3025
-0.0153177774987523,11.305
-0.00951681302881824,11.3075
-0.0313473369005082,11.31
-0.0465808398448855,11.3125
-0.0415091260721276,11.315
-0.0508427979912657,11.3175
-0.103125870964517,11.32
-0.166130489115799,11.3225
-0.183917027066152,11.325
-0.155992619546299,11.3275
-0.13630552873213,11.33
-0.149457403399105,11.3325
-0.15460144345353,11.335
-0.116607148443018,11.3375
-0.0691492340598862,11.34
-0.0635235574457108,11.3425
-0.0881662389159712,11.345
-0.0938984234390397,11.3475
-0.0766193159727542,11.35
-0.0739394208619386,11.3525
-0.0911039264899976,11.355
-0.093343030932083,11.3575
-0.073108790447968,11.36
-0.0652445265030774,11.3625
-0.0819105012086053,11.365
-0.0853376370142525,11.3675
-0.0495351435600474,11.37
-0.00498481981824817,11.3725
0.00964973104624761,11.375
0.00426774131486775,11.3775
0.00990357951152304,11.38
0.0231853287241485,11.3825
0.0178447888321305,11.385
-0.0043767085776184,11.3875
-0.0116462896717172,11.39
0.0117408689376959,11.3925
0.0455347446582258,11.395
0.0637134719957618,11.3975
0.0627435790559822,11.4
0.0546106117251,11.4025
0.0497726207511866,11.405
0.0504475511686676,11.4075
0.0471816034493608,11.41
0.027397180622362,11.4125
0.000870731406107383,11.415
4.24550398706036e-05,11.4175
0.0340514141358359,11.42
0.0636235370928381,11.4225
0.0512498368680842,11.425
0.0176438284776384,11.4275
0.0113484976170789,11.43
0.032906913409735,11.4325
0.0331209749737922,11.435
-0.00738867141722011,11.4375
-0.0408508938029528,11.44
-0.0206096786305498,11.4425
0.0272895643840503,11.445
0.0420353831845642,11.4475
0.0180955522505293,11.45
0.00836857011417591,11.4525
0.0406897845343412,11.455
0.078605329937795,11.4575
0.0775006641925961,11.46
0.0454284349823247,11.4625
0.0271428456840166,11.465
0.0423847203656251,11.4675
0.0624512943937698,11.47
0.0544862485105291,11.4725
0.0315434101438045,11.475
0.033943042435788,11.4775
0.0666144841118722,11.48
0.087039431240764,11.4825
0.0630497318257275,11.485
0.0178891267649772,11.4875
0.00370084748211158,11.49
0.0390539858235644,11.4925
0.0857007255485168,11.495
0.0955841362867228,11.4975
0.0726807883042459,11.5
0.0639585834703032,11.5025
0.0897619475417397,11.505
0.119693331224516,11.5075
0.127223246946514,11.51
0.126267959780347,11.5125
0.132327501176941,11.515
0.127357615447707,11.5175
0.0946483566987955,11.52
0.0569466291177752,11.5225
0.0442448870510609,11.525
0.0462453498047083,11.5275
0.0332444328802494,11.53
0.0110856009637228,11.5325
0.0184623886962449,11.535
0.0666463034769727,11.5375
0.111092923547892,11.54
0.10199480525165,11.5425
0.0495685153408322,11.545
0.0125419786361399,11.5475
0.0216075450370334,11.55
0.0450285958828027,11.5525
0.0429857164085277,11.555
0.0241817967389505,11.5575
0.0228213781125403,11.56
0.043585909193842,11.5625
0.0588863860634593,11.565
0.0474248149341321,11.5675
0.0138547260084874,11.57
-0.0215795113002276,11.5725
-0.0396980279394991,11.575
-0.03412141770613,11.5775
-0.0155457830444715,11.58
-0.00445489627156509,11.5825
-0.0138551498175321,11.585
-0.0349111685250068,11.5875
-0.0433100796999185,11.59
-0.0261505509976326,11.5925
1.53615438872601e-05,11.595
0.00601803896532624,11.5975
-0.0141219594807877,11.6
-0.0337317223700153,11.6025
-0.0280781760402991,11.605
-0.00939835663629274,11.6075
-0.00977501954172888,11.61
-0.0341427243259511,11.6125
-0.054944225365878,11.615
-0.054892413726107,11.6175
-0.0485175019953549,11.62
-0.0517537482394871,11.6225
-0.0518952475512532,11.625
-0.0263304477060445,11.6275
0.0163762712942678,11.63
0.0350534654044953,11.6325
0.00420271644311893,11.635
-0.0515273804784704,11.6375
-0.087207569549693,11.64
-0.089659385081017,11.6425
-0.0799571763696624,11.645
-0.0749119127824753,11.6475
-0.0678416787704,11.65
-0.0440130762556093,11.6525
-0.00327410695524057,11.655
0.0319192066931721,11.6575
0.0353660367263006,11.66
0.0111449118448828,11.6625
-0.00657064060848184,11.665
-0.00295524628599386,11.6675
-0.0087340078001335,11.67
-0.0499046756901705,11.6725
-0.0950548790573866,11.675
-0.093483462923493,11.6775
-0.0520182370257267,11.68
-0.026949940697303,11.6825
-0.0411067917392937,11.685
-0.0570075641041623,11.6875
-0.0425293903467055,11.69
-0.0168554416754892,11.6925
-0.010138871630246,11.695
-0.0182140698680309,11.6975
-0.023781140585216,11.7
-0.0275164746464074,11.7025
-0.0324360605832706,11.705
-0.0303033019060355,11.7075
-0.0263527350511508,11.71
-0.0438282878946039,11.7125
-0.0813777152659306,11.715
-0.0985896582455387,11.7175
-0.0703426080182762,11.72
-0.0295164964232327,11.7225
-0.0240028087580894,11.725
-0.0466072853318021,11.7275
-0.0455942067984819,11.73
-0.00563051070567444,11.7325
0.0212265735846638,11.735
-0.0142193578655063,11.7375
-0.0847037918887342,11.74
-0.116283879807428,11.7425
-0.0842400155839227,11.745
-0.0426764387559437,11.7475
-0.0437394973935631,11.75
-0.0608395663724452,11.7525
-0.0304766305116113,11.755
0.0473131960343914,11.7575
0.100811132350192,11.76
0.0840974246055655,11.7625
0.0377131927406819,11.765
0.028409748449931,11.7675
0.0590313185464313,11.77
0.0754481810545475,11.7725
0.052002311946914,11.775
0.0266222915241459,11.7775
0.0397883602855673,11.78
0.0734984860416608,11.7825
0.0755700818957804,11.785
0.028972323248605,11.7875
-0.0265388773901826,11.79
-0.0450232759077182,11.7925
-0.0319974593943227,11.795
-0.0331496951631347,11.7975
-0.0675898350719672,11.8
-0.100905683915655,11.8025
-0.0980663192266075,11.805
-0.0744492273818466,11.8075
-0.0678350357263499,11.81
-0.080352654135692,11.8125
-0.0837603292751453,11.815
-0.0756592735070351,11.8175
-0.0918382712558442,11.82
-0.153875222207477,11.8225
-0.238656875309982,11.825
-0.319159742549922,11.8275
-0.407681934066192,11.83
-0.531474666347593,11.8325
-0.682266586501557,11.835
-0.817648871503575,11.8375
-0.902484855756606,11.84
-0.918267890831701,11.8425
-0.833428794228755,11.845
-0.599646771684019,11.8475
-0.191297479088599,11.85
0.371495730068128,11.8525
1.0367648492776,11.855
1.7219981589455,11.8575
2.30181352291116,11.86
2.64561105903827,11.8625
2.69288608021502,11.865
2.46819745295122,11.8675
2.02199094611339,11.87
1.40020417307796,11.8725
0.683590582003463,11.875
0.00338977594954046,11.8775
-0.531401159263667,11.88
-0.911388815057069,11.8825
-1.19879752849764,11.885
-1.42798802874076,11.8875
-1.56855619361905,11.89
-1.59269970179758,11.8925
-1.53702150219682,11.895
-1.46201943183994,11.8975
-1.37334249116465,11.9
-1.23105222775414,11.9025
-1.03327444723911,11.905
-0.837862904237303,11.9075
-0.684934275976321,11.91
-0.547897367017587,11.9125
-0.39350695127741,11.915
-0.247507358196057,11.9175
-0.155260473429592,11.92
-0.106560506119779,11.9225
-0.0506727483116724,11.925
0.0264767157163109,11.9275
0.0884367418568295,11.93
0.113320081858641,11.9325
0.130384178965296,11.935
0.174370999881241,11.9375
0.232346873201225,11.94
0.262447329414951,11.9425
0.253641215648371,11.945
0.240504927286367,11.9475
0.254738359024941,11.95
0.281171105926221,11.9525
0.279023299657725,11.955
0.241918075326431,11.9575
0.212853115876529,11.96
0.225960323319823,11.9625
0.253812781965496,11.965
0.2422933921181,11.9675
0.189229920623938,11.97
0.149964051817712,11.9725
0.159433006096316,11.975
0.188555889503947,11.9775
0.194945764694805,11.98
0.181130091198604,11.9825
0.177015460070404,11.985
0.189952376445343,11.9875
0.200035586104328,11.99
0.193773288410154,11.9925
0.180292001005202,11.995
0.174145727091548,11.9975
0.174095648985581,12
0.164442393689099,12.0025
0.136384678898676,12.005
0.10279458021924,12.0075
0.084445423411516,12.01
0.0841791528802418,12.0125
0.0859283178774787,12.015
0.0767621983519424,12.0175
0.0566677084917321,12.02
0.0312753834355363,12.0225
0.00945400889996109,12.025
0.00161746434460081,12.0275
0.0065063045116065,12.03
0.00777396782201518,12.0325
-0.00308894992396369,12.035
-0.010515206421403,12.0375
0.00264285532597808,12.04
0.0259562024834114,12.0425
0.0345185447252644,12.045
0.0251075250705331,12.0475
0.0185979218816174,12.05
0.0283443747047558,12.0525
0.0438880435444541,12.055
0.0482347731395692,12.0575
0.0405241774315206,12.06
0.0359649558085829,12.0625
0.0440706682000076,12.065
0.0533914697937113,12.0675
0.0476303551690466,12.07
0.033540538140203,12.0725
0.0341565645598491,12.075
0.050222556759289,12.0775
0.0523216085944717,12.08
0.025751439954968,12.0825
-0.00213002284909469,12.085
-0.0038434910521275,12.0875
0.00314177412734279,12.09
-0.0132466983902929,12.0925
-0.0434810721072922,12.095
-0.0497698263612497,12.0975
-0.0261384092512331,12.1
-0.00715103561957942,12.1025
-0.0160816632456527,12.105
-0.036380915587816,12.1075
-0.0417865414383045,12.11
-0.0289708120581654,12.1125
-0.0104826569035811,12.115
0.00254712240274775,12.1175
0.000740734660379216,12.12
-0.0194286928509876,12.1225
-0.0437412615931212,12.125
-0.0530928483129003,12.1275
-0.0517728871301586,12.13
-0.0602046172951241,12.1325
-0.0804651337462061,12.135
-0.0968282720472328,12.1375
-0.110062324291234,12.14
-0.138090715259777,12.1425
-0.17629398907047,12.145
-0.191576696559007,12.1475
-0.171315470013494,12.15
-0.146983820574199,12.1525
-0.147320453801766,12.155
-0.155802205669257,12.1575
-0.14103553022077,12.16
-0.105400402819142,12.1625
-0.0751056680814972,12.165
-0.0611903701652627,12.1675
-0.0557280884617834,12.17
-0.0512076061967818,12.1725
-0.0456566583955408,12.175
-0.0409472431286467,12.1775
-0.0421737206979486,12.18
-0.0467163390441335,12.1825
-0.0409428659851392,12.185
-0.0223947469448026,12.1875
-0.00844242890917746,12.19
-0.00685486121842351,12.1925
-0.00199371138026294,12.195
0.0142753398322634,12.1975
0.0281272924254317,12.2
0.033178718425218,12.2025
0.0390919270177617,12.205
0.0418452733752105,12.2075
0.0261336513826888,12.21
0.00355976653175977,12.2125
0.00380077350399188,12.215
0.0230099531369592,12.2175
0.0271457776921274,12.22
0.0111728415635206,12.2225
0.00861013699811458,12.225
0.03430656444149,12.2275
0.0600118871217171,12.23
0.0586051171008335,12.2325
0.0384009741475118,12.235
0.0218808935000427,12.2375
0.0178797518240278,12.24
0.024120700815583,12.2425
0.0338508701697958,12.245
0.0342203246389162,12.2475
0.0197798698552581,12.25
0.00846533796234944,12.2525
0.0206166916223693,12.255
0.0441653450692309,12.2575
0.0476849399076842,12.26
0.0271107286513134,12.2625
0.0109197629318075,12.265
0.0156260924155008,12.2675
0.0232290470921998,12.27
0.0132510690537905,12.2725
-0.00316623817066894,12.275
0.00105221163594976,12.2775
0.026798045142406,12.28
0.0433587640540909,12.2825
0.0314152297124489,12.285
0.0113691234543381,12.2875
0.0113862127444204,12.29
0.0254299078919654,12.2925
0.0295296505848811,12.295
0.0252884542063616,12.2975
0.0348081065975754,12.3
0.0599593211391099,12.3025
0.0778141244423139,12.305
0.0748597172249216,12.3075
0.0619755694183855,12.31
0.0552097732172016,12.3125
0.0577062409707547,12.315
0.0621075503134021,12.3175
0.0623100507306339,12.32
0.0602337049515094,12.3225
0.0612642368888242,12.325
0.0635844109952417,12.3275
0.0587559681525682,12.33
0.0478683586977474,12.3325
0.0457910202106971,12.335
0.0572806033222914,12.3375
0.0627698639582481,12.34
0.0469025621418598,12.3425
0.0264176726001892,12.345
0.0254768864264273,12.3475
0.0374469762358189,12.35
0.0382350897666781,12.3525
0.025430192021336,12.355
0.0164388615122848,12.3575
0.0164447862295085,12.36
0.0158590398005579,12.3625
0.0163434527339686,12.365
0.0312684935124271,12.3675
0.0555124367454972,12.37
0.0637267854923523,12.3725
0.0523565521837011,12.375
0.0528519153220141,12.3775
0.0803483232982273,12.38
0.10087314943207,12.3825
0.0809341478133773,12.385
0.039748987352784,12.3875
0.014757844926537,12.39
0.0030118693394901,12.3925
-0.0185561154354749,12.395
-0.0373342107956169,12.3975
-0.0219596566038369,12.4
0.0171492102285569,12.4025
0.0374190948031786,12.405
0.0300274582832249,12.4075
0.0259218011129993,12.41
0.0367568969123718,12.4125
0.0385129139112823,12.415
0.019663244878045,12.4175
0.00295125924600487,12.42
0.00695258599346654,12.4225
0.0184070311377945,12.425
0.0181528712029326,12.4275
0.0112800485059324,12.43
0.0140386649665202,12.4325
0.0257999621382359,12.435
0.0314536655260766,12.4375
0.0235786202051827,12.44
0.0092290256045966,12.4425
0.000284977400956454,12.445
0.00288099253326196,12.4475
0.0088247162730461,12.45
0.000186432375762297,12.4525
-0.0247344887942008,12.455
-0.0415518287938589,12.4575
-0.0363780494518865,12.46
-0.0326096324296792,12.4625
-0.0493421359042728,12.465
-0.0566197304587709,12.4675
-0.0195791709374601,12.47
0.0301290116530674,12.4725
0.0271460368636207,12.475
-0.026665948709879,12.4775
-0.0582063708084549,12.48
-0.0309617769033202,12.4825
0.00544401445977427,12.485
-0.00146459589273797,12.4875
-0.028676108568798,12.49
-0.0222835191391986,12.4925
0.01601678927132,12.495
0.0333505262822508,12.4975
0.00272510868194459,12.5
-0.0451780634393552,12.5025
-0.0700530873168382,12.505
-0.0710849965781358,12.5075
-0.0733398650752389,12.51
-0.0827216874635737,12.5125
-0.0768738607254035,12.515
-0.0409184353949842,12.5175
0.00654259806519776,12.52
0.0338637063493767,12.5225
0.031315496999572,12.525
0.0132615551439617,12.5275
-0.00460336659234442,12.53
-0.0158771239915207,12.5325
-0.0200287324854864,12.535
-0.0226455918773538,12.5375
-0.0310077510282781,12.54
-0.0389522714028778,12.5425
-0.030252729668375,12.545
-0.00842508961860633,12.5475
-0.00232231667923249,12.55
-0.0241311464640853,12.5525
-0.0446908313664835,12.555
-0.0370789883877922,12.5575
-0.0229507314812732,12.56
-0.0372851210535507,12.5625
-0.0635909531461485,12.565
-0.0554997388014736,12.5675
-0.0160327560675491,12.57
0.00426572163365824,12.5725
-0.00919355416285866,12.575
-0.0148794346433241,12.5775
0.0125757545209675,12.58
0.0466474389484623,12.5825
0.057048584735392,12.585
0.0473430167613266,12.5875
0.0357539112554441,12.59
0.0319986028792228,12.5925
0.0350247967099912,12.595
0.0334222350210169,12.5975
0.0173364101556669,12.6
-0.000200838584845375,12.6025
0.00338630759337688,12.605
0.0200369816285412,12.6075
0.0176469539688586,12.61
-0.00712997098346594,12.6125
-0.0217974480221434,12.615
-0.0131831479792571,12.6175
-0.00965197077122741,12.62
-0.0325753868576644,12.6225
-0.060820770404734,12.625
-0.0659336784425791,12.6275
-0.0563725373637168,12.63
-0.0586996082456097,12.6325
-0.0714990600139991,12.635
-0.0718239855687653,12.6375
-0.0614176155639647,12.64
-0.0709085767774309,12.6425
-0.116457748573242,12.645
-0.184890367968599,12.6475
-0.264566781804868,12.65
-0.361824860449814,12.6525
-0.484959286467726,12.655
-0.632354718484492,12.6575
-0.787259458922049,12.66
-0.903169971923224,12.6625
-0.90897948718646,12.665
-0.751977566352363,12.6675
-0.426907190727046,12.67
0.0461857338311665,12.6725
0.647867391146798,12.675
1.33748061149365,12.6775
2.01289313051246,12.68
2.5224253666269,12.6825
2.74583269849075,12.685
2.6670048012806,12.6875
2.34899135171486,12.69
1.84808601124988,12.6925
1.19715161260848,12.695
0.472828935229136,12.6975
-0.190024037098805,12.7
-0.692648886749465,12.7025
-1.04592225950142,12.705
-1.31571114517415,12.7075
-1.52295057714731,12.71
-1.63548747795729,12.7125
-1.63998630382889,12.715
-1.57379333384162,12.7175
-1.47879362661274,12.72
-1.36071537386587,12.7225
-1.21197460072523,12.725
-1.04626278367752,12.7275
-0.884756098373861,12.73
-0.728631867852905,12.7325
-0.573832167132079,12.735
-0.436524985831489,12.7375
-0.334274039369953,12.74
-0.255175655525711,12.7425
-0.174069183302213,12.745
-0.0899392731582953,12.7475
-0.0211820260308381,12.75
0.031265491031195,12.7525
0.0896004826454308,12.755
0.162509038116948,12.7575
0.225152051866297,12.76
0.251586926975015,12.7625
0.253228266982573,12.765
0.263107324134934,12.7675
0.287701041365144,12.77
0.30072186847935,12.7725
0.287007771248427,12.775
0.264721704984954,12.7775
0.254853566989453,12.78
0.252974540501569,12.7825
0.243687222851929,12.785
0.22686583977227,12.7875
0.217214942962027,12.79
0.222372084434181,12.7925
0.228785722887574,12.795
0.215007470801048,12.7975
0.180400559864844,12.8
0.150702729728216,12.8025
0.14632299285044,12.805
0.156217716741043,12.8075
0.158627700028383,12.81
0.157576687253956,12.8125
0.17478038201193,12.815
0.206749354088976,12.8175
0.217249598430036,12.82
0.183729972303306,12.8225
0.129929598754955,12.825
0.0944916819916698,12.8275
0.0825896258392043,12.83
0.0708977428459348,12.8325
0.0512290647221167,12.835
0.0424797407483812,12.8375
0.0562530630056163,12.84
0.0730819905879209,12.8425
0.0664162903000325,12.845
0.0393675372647014,12.8475
0.0214715172382252,12.85
0.0301738212875601,12.8525
0.0511778752265588,12.855
0.0627774358945081,12.8575
0.0647514167923319,12.86
0.0697795795535539,12.8625
0.0765514623321298,12.865
0.0709923295473951,12.8675
0.0530016612070367,12.87
0.0399424297165595,12.8725
0.0346890818025555,12.875
0.0133269325639284,12.8775
-0.0354921020829303,12.88
-0.0804411848664169,12.8825
-0.0858905791506458,12.885
-0.0641443575244889,12.8875
-0.0553296834476593,12.89
-0.0642194939156382,12.8925
-0.0539421539966146,12.895
-0.00535811125714974,12.8975
0.0512896720398563,12.9
0.0771512042454288,12.9025
0.0694715622223127,12.905
0.0485081629341146,12.9075
0.0252666323724496,12.91
0.00322726319377209,12.9125
-0.00927145061528788,12.915
-0.00973985661987009,12.9175
-0.00872870426662853,12.92
-0.0115181850450074,12.9225
-0.008490488355967,12.925
0.0057641076133646,12.9275
0.0197334689171543,12.93
0.0206668259559003,12.9325
0.0111928552740729,12.935
0.00351398894868932,12.9375
0.00393714675178125,12.94
0.00744790318693134,12.9425
0.00480952860425432,12.945
-0.0083612289735474,12.9475
-0.0299082568411888,12.95
-0.0535859715082919,12.9525
-0.0697651337893364,12.955
-0.0715480737379817,12.9575
-0.067369173909221,12.96
-0.0773306608491605,12.9625
-0.105998435699383,12.965
-0.12982027979469,12.9675
-0.125710774314559,12.97
-0.102602159049494,12.9725
-0.0908595933930777,12.975
-0.108701763431251,12.9775
-0.148361016381197,12.98
-0.18418831305112,12.9825
-0.188171310159925,12.985
-0.152947131988333,12.9875
-0.106058697146067,12.99
-0.0844800686600258,12.9925
-0.089382470170729,12.995
-0.0866501920732411,12.9975
-0.0594764876077648,13
-0.03442076879587,13.0025
-0.0382709674466915,13.005
-0.0534796288551049,13.0075
-0.0447721430138495,13.01
-0.0146212413611951,13.0125
0.00232520372649879,13.015
-0.00535132150362694,13.0175
-0.0130174246880866,13.02
-0.00615000225769508,13.0225
-0.0022010397016774,13.025
-0.0140463850043043,13.0275
-0.0248278394787684,13.03
-0.0166822907199436,13.0325
0.00173333718786417,13.035
0.0129772659397616,13.0375
0.0159815473062891,13.04
0.0201795197030366,13.0425
0.0283874966995932,13.045
0.0347441339413066,13.0475
0.0321696759569049,13.05
0.0186849388151278,13.0525
0.00108599063239967,13.055
-0.00936507573007786,13.0575
-0.00927442127117478,13.06
-0.00593583603272008,13.0625
-0.00383508809271056,13.065
0.00152771564966159,13.0675
0.00984535587313379,13.07
0.0088911980007749,13.0725
-0.00815906231120805,13.075
-0.0281309176863304,13.0775
-0.0320027632724472,13.08
-0.0183528075975452,13.0825
-0.00113376082656064,13.085
0.0156420367741859,13.0875
0.0452301918574688,13.09
0.0881476727463086,13.0925
0.110708016786561,13.095
0.0813673340967764,13.0975
0.0228255219510322,13.1
-0.00645955902636672,13.1025
0.0129553756785754,13.105
0.0404637645418593,13.1075
0.0408309759508414,13.11
0.0337047022447653,13.1125
0.0534250236919312,13.115
0.090218627273333,13.1175
0.105341909897839,13.12
0.0868249312879957,13.1225
0.0582134496238997,13.125
0.0408678155782132,13.1275
0.0330493858386238,13.13
0.0241482992652969,13.1325
0.0127507074593559,13.135
0.00742924135536399,13.1375
0.0156759698830912,13.14
0.0346087648163339,13.1425
0.0519304418046429,13.145
0.0560611279309163,13.1475
0.0477629249476701,13.15
0.0420706109188784,13.1525
0.0517892328123546,13.155
0.0662415802607582,13.1575
0.0589429145287176,13.16
0.0252776107960979,13.1625
-0.00279149976092086,13.165
0.00372735992150595,13.1675
0.0299303765378114,13.17
0.0384200146311487,13.1725
0.0233242626330348,13.175
0.015907698570715,13.1775
0.0350888399015474,13.18
0.0582046421952394,13.1825
0.054667954215752,13.185
0.0324981307854625,13.1875
0.0279024916469026,13.19
0.050062931945608,13.1925
0.0649149937485686,13.195
0.0480238844442866,13.1975
0.0249970771377218,13.2
0.0328598090929992,13.2025
0.0653415207120141,13.205
0.0878842350584749,13.2075
0.0873330885801896,13.21
0.0749842348209261,13.2125
0.05616035706807,13.215
0.0280129502031861,13.2175
-0.00132852116884052,13.22
-0.0172332510680955,13.2225
-0.0182051462203962,13.225
-0.0131319282159037,13.2275
-0.00413690240914405,13.23
0.0118469282881763,13.2325
0.0292144341752722,13.235
0.0357073031571012,13.2375
0.0254030693576912,13.24
0.00254428887778217,13.2425
-0.0212631156546234,13.245
-0.0316856514809321,13.2475
-0.0232489977738776,13.25
-0.00664614786386203,13.2525
0.00332699509368622,13.255
0.00437148656378555,13.2575
0.00485825160148709,13.26
0.00818002177693988,13.2625
0.00478788840089645,13.265
-0.015703907299874,13.2675
-0.0442833703578554,13.27
-0.055406141675546,13.2725
-0.0387585018652953,13.275
-0.0162362028752331,13.2775
-0.0142695804407271,13.28
-0.030257829234586,13.2825
-0.0414519609182081,13.285
-0.0378784809941307,13.2875
-0.0287677762735372,13.29
-0.0211883397260461,13.2925
-0.0125399790879195,13.295
-0.00590895556158871,13.2975
-0.0120426042137933,13.3
-0.0280498434054945,13.3025
-0.033206268874227,13.305
-0.0189698833229791,13.3075
-0.00772724928993307,13.31
-0.0239182714570999,13.3125
-0.0560658994805044,13.315
-0.0702462816364637,13.3175
-0.0592689334908332,13.32
-0.0501849336556279,13.3225
-0.0560602924978245,13.325
-0.0533776871877352,13.3275
-0.0251665720295066,13.33
0.00515189575906644,13.3325
0.00869873670946985,13.335
-0.00492760189771574,13.3375
-0.00630293152357358,13.34
0.00811940052661531,13.3425
0.0153804089144154,13.345
0.00323471113792112,13.3475
-0.0139425390355583,13.35
-0.0182298527870567,13.3525
-0.0139154680287311,13.355
-0.0212723042219221,13.3575
-0.0467756322281944,13.36
-0.0708263311344303,13.3625
-0.0733847634478402,13.365
-0.0630935119740728,13.3675
-0.0639943393870547,13.37
-0.0752547394764889,13.3725
-0.0692190551201821,13.375
-0.0393313454742382,13.3775
-0.018659684378403,13.38
-0.0267169619532672,13.3825
-0.0321981632841666,13.385
-0.00470062477231348,13.3875
0.031602069407494,13.39
0.0402568525545234,13.3925
0.0352140757505844,13.395
0.0519695112431488,13.3975
0.0825655594388276,13.4
0.0893899229926492,13.4025
0.0684812864444078,13.405
0.0533590981517282,13.4075
0.0588787935596112,13.41
0.0601709889834397,13.4125
0.0366620042651562,13.415
0.00630308107609179,13.4175
-0.00355076165222129,13.42
0.00336124183540976,13.4225
0.00494331586193431,13.425
-0.00518829610994549,13.4275
-0.0200922343499629,13.43
-0.0357907662755421,13.4325
-0.0455729289373654,13.435
-0.0408532500853221,13.4375
-0.0299432719069564,13.44
-0.0298903008920619,13.4425
-0.0356483725556696,13.445
-0.0285760622070325,13.4475
-0.0164608245290865,13.45
-0.0298647844062483,13.4525
-0.0749449304300172,13.455
-0.125815638302322,13.4575
-0.173582200208151,13.46
-0.249556752534967,13.4625
-0.38279215444397,13.465
-0.559359893720561,13.4675
-0.738510602839581,13.47
-0.885968980561277,13.4725
-0.975144433054452,13.475
-0.972029026998082,13.4775
-0.833553662550674,13.48
-0.519463146866392,13.4825
-0.0130630180512602,13.485
0.653438658182392,13.4875
1.38858495467209,13.49
2.06316256489911,13.4925
2.55499965727118,13.495
2.78869073205096,13.4975
2.745081652885,13.5
2.44464382953502,13.5025
1.93391831765904,13.505
1.28773231912456,13.5075
0.605469432219395,13.51
-0.0189263581653295,13.5125
-0.534415505090591,13.515
-0.937760232887217,13.5175
-1.2427754768856,13.52
-1.45589818517651,13.5225
-1.5788199818376,13.525
-1.61496887796201,13.5275
-1.57055622890301,13.53
-1.46353513785728,13.5325
-1.32642423623887,13.535
-1.18363059910616,13.5375
-1.03268046629003,13.54
-0.863673211389323,13.5425
-0.689387331179903,13.545
-0.537786850476557,13.5475
-0.417414746660055,13.55
-0.309153907300384,13.5525
-0.196634844704361,13.555
-0.0885217443957484,13.5575
-0.00355242969002262,13.56
0.0522202904473305,13.5625
0.0865284361910254,13.565
0.111629002604225,13.5675
0.13782384627048,13.57
0.166114917978533,13.5725
0.187727397486981,13.575
0.198840693063775,13.5775
0.209674988107052,13.58
0.228556053691567,13.5825
0.244718348397147,13.585
0.243461685406594,13.5875
0.235115818314399,13.59
0.246754812259396,13.5925
0.28031593222562,13.595
0.301728469644715,13.5975
0.282474541764679,13.6
0.234600118204044,13.6025
0.194592212274614,13.605
0.184335261987252,13.6075
0.193911586765113,13.61
0.195519611076113,13.6125
0.17337897247499,13.615
0.143353729135969,13.6175
0.135021287673159,13.62
0.150499238238304,13.6225
0.159251995590038,13.625
0.14206609661924,13.6275
0.115710965481432,13.63
0.102691716587957,13.6325
0.103455997376203,13.635
0.108561111302508,13.6375
0.110645638594012,13.64
0.0994696544676789,13.6425
0.0749110784108369,13.645
0.0635569742622918,13.6475
0.0874161783137051,13.65
0.121097417552485,13.6525
0.121187209122762,13.655
0.0918036103883338,13.6575
0.0738654857892154,13.66
0.0753120715597834,13.6625
0.0640031409554895,13.665
0.0285946564284608,13.6675
-0.00289369325405001,13.67
-0.00903106502754703,13.6725
-0.00190648190486775,13.675
-0.00399006063716609,13.6775
-0.0207224217382126,13.68
-0.03729310266245,13.6825
-0.0354249518675756,13.685
-0.0178026733147905,13.6875
-0.0091334824531244,13.69
-0.0199619819660167,13.6925
-0.0254441529215078,13.695
-0.00382370973173068,13.6975
0.0212917380694542,13.7
0.010611023426308,13.7025
-0.0287008122775283,13.705
-0.0480581625215952,13.7075
-0.0259112262204511,13.71
0.00494711079132503,13.7125
0.0099232511730401,13.715
-0.00133194131913528,13.7175
-0.00287267301670791,13.72
0.00442103136954056,13.7225
0.00788734905834643,13.725
0.0139315159392749,13.7275
0.0287445448454287,13.73
0.033147631985525,13.7325
0.0131568429501714,13.735
-0.00852906717901145,13.7375
-0.00666643938944952,13.74
0.00706631481738101,13.7425
0.0122901696132371,13.745
0.0172872172281407,13.7475
0.0330480614446347,13.75
0.0416807982904933,13.7525
0.0268537345260287,13.755
0.00587423249963787,13.7575
-0.00112635661418192,13.76
-0.00406586233505048,13.7625
-0.0180969426134328,13.765
-0.0389910461693378,13.7675
-0.0654878149809592,13.77
-0.108160970310787,13.7725
-0.155802900516098,13.775
-0.175246358274406,13.7775
-0.164566438623369,13.78
-0.161338909629774,13.7825
-0.177080938692399,13.785
-0.172182294333874,13.7875
-0.125697395923903,13.79
-0.0855845639226917,13.7925
-0.107737610112619,13.795
-0.172718526265258,13.7975
-0.207852711434911,13.8
-0.182631008256764,13.8025
-0.14059914440842,13.805
-0.129287713545307,13.8075
-0.134670795504062,13.81
-0.111747274910945,13.8125
-0.0594760400814832,13.815
-0.0272766774947713,13.8175
-0.0450848669366848,13.82
-0.078980309675012,13.8225
-0.0746395142388954,13.825
-0.0285143636990725,13.8275
0.00963689393775728,13.83
0.00438423028698887,13.8325
-0.0229151998983056,13.835
-0.0322850162988821,13.8375
-0.0204816191238447,13.84
-0.0136304355545349,13.8425
-0.0206939835221825,13.845
-0.0245427114180112,13.8475
-0.0155004161503158,13.85
-0.00531340800932656,13.8525
-0.00295273480970423,13.855
0.00122459001220354,13.8575
0.0188803441412254,13.86
0.044929278815775,13.8625
0.0623528928967639,13.865
0.060223382785141,13.8675
0.0433364068497989,13.87
0.0240779443706167,13.8725
0.00726232343270877,13.875
-0.0104886350878095,13.8775
-0.0259975942772856,13.88
-0.0264877020269584,13.8825
-0.00825724495397545,13.885
0.0139056449722728,13.8875
0.0268082023115822,13.89
0.0358026307025767,13.8925
0.0478055108063655,13.895
0.0524670588312817,13.8975
0.039935477737517,13.9
0.0223416367898616,13.9025
0.0147131775476476,13.905
0.0102375142568911,13.9075
-0.00103164782329246,13.91
-0.00696042823821913,13.9125
0.00567788201718752,13.915
0.0227860993855503,13.9175
0.0234713520195566,13.92
0.0126177698810409,13.9225
0.00863383146230529,13.925
0.0151996158461371,13.9275
0.0243415826335359,13.93
0.0316335227325418,13.9325
0.0366862489528754,13.935
0.0436731672426796,13.9375
0.0632211977222628,13.94
0.09634322057767,13.9425
0.121911904885681,13.945
0.121742694746073,13.9475
0.109692721189401,13.95
0.110441995718969,13.9525
0.119084312312962,13.955
0.112582850554798,13.9575
0.0942981418605283,13.96
0.0913709159913251,13.9625
0.107574847705885,13.965
0.114871287250577,13.9675
0.0995531822202721,13.97
0.0841523924649368,13.9725
0.0911515155778697,13.975
0.112230328276935,13.9775
0.126407712496665,13.98
0.125349999553513,13.9825
0.108084317965507,13.985
0.0712879278271398,13.9875
0.0203854340025312,13.99
-0.0230819990178631,13.9925
-0.0405086313742369,13.995
-0.0359306752140862,13.9975
-0.0242511344002212,14
-0.00701713723480507,14.0025
0.0225153559819925,14.005
0.0544852031697793,14.0075
0.0654380629826719,14.01
0.04835200896945,14.0125
0.0201216482406159,14.015
-0.00264277933126028,14.0175
-0.0194023113803965,14.02
-0.037263655736489,14.0225
-0.0572398917176708,14.025
-0.0686836847187487,14.0275
-0.058915245316585,14.03
-0.0342723333252698,14.0325
-0.0195761572133736,14.035
-0.0243638281664879,14.0375
-0.0284179320537536,14.04
-0.0149295563567663,14.0425
0.00720937511934472,14.045
0.0267362187673929,14.0475
0.0434821100704978,14.05
0.0479606346749201,14.0525
0.0254874663466645,14.055
-0.00904936079028529,14.0575
-0.0201957234808919,14.06
-0.00480657708740423,14.0625
0.00341334143994923,14.065
-0.00995947417166429,14.0675
-0.0201673559789667,14.07
-0.0119726485659011,14.0725
-0.00822594359142177,14.075
-0.0274456581502474,14.0775
-0.046537813291701,14.08
-0.036186142617426,14.0825
-0.00788130786870705,14.085
0.0083906039993164,14.0875
0.0134083085398793,14.09
0.0290227838698743,14.0925
0.054006630125487,14.095
0.0671075521822098,14.0975
0.0647425773429387,14.1
0.0604309624985038,14.1025
0.0538177772647393,14.105
0.0339929011547374,14.1075
0.00880203701045379,14.11
-0.00130649125322108,14.1125
0.00240020755251813,14.115
-0.00288815533989252,14.1175
-0.024366207755972,14.12
-0.0405456299768915,14.1225
-0.0336305646048401,14.125
-0.0180591365654873,14.1275
-0.0226110937701634,14.13
-0.0497501245811822,14.1325
-0.0682189348522607,14.135
-0.053189938264071,14.1375
-0.02315237076404,14.14
-0.0182480310471186,14.1425
-0.0433525709393657,14.145
-0.0606632530577629,14.1475
-0.0487431675406253,14.15
-0.0338981461576665,14.1525
-0.0405204786864742,14.155
-0.0474789617993241,14.1575
-0.0264291474306857,14.16
0.00983137771975806,14.1625
0.0318877504529329,14.165
0.0367806619952045,14.1675
0.0345331716674974,14.17
0.0202192855467331,14.1725
-0.00946819533096537,14.175
-0.0356393209195275,14.1775
-0.0405820594632811,14.18
-0.0333861985471977,14.1825
-0.0317902566442816,14.185
-0.0353174765419491,14.1875
-0.0332238096678747,14.19
-0.0246297078541036,14.1925
-0.0169655786256319,14.195
-0.0147360374870763,14.1975
-0.0175466405509853,14.2
-0.0211231895610446,14.2025
-0.0187723106748096,14.205
-0.00916775573171326,14.2075
0.000356238076636234,14.21
0.00444865098462666,14.2125
0.00741956572205332,14.215
0.0151746487099196,14.2175
0.026044880290611,14.22
0.032291822083667,14.2225
0.0266125551967322,14.225
0.00945610382844431,14.2275
-0.009143846447844,14.23
-0.0226691124382364,14.2325
-0.0392852215208639,14.235
-0.064962664746844,14.2375
-0.0819668274582138,14.24
-0.0669574952107615,14.2425
-0.0273065666426603,14.245
0.00426769566442559,14.2475
0.010853597219382,14.25
0.00602213157517251,14.2525
0.00542605769689292,14.255
0.00198524999411559,14.2575
-0.0211770100052264,14.26
-0.060446676572584,14.2625
-0.0887258630874457,14.265
-0.0923449633168906,14.2675
-0.1006827107623,14.27
-0.157495220965674,14.2725
-0.268202086565047,14.275
-0.403068285727628,14.2775
-0.545616016843777,14.28
-0.700585619721692,14.2825
-0.855517690549591,14.285
-0.96817742484241,14.2875
-0.986538906381243,14.29
-0.854775622835579,14.2925
-0.521764602221936,14.295
0.0181178853839452,14.2975
0.704118901753421,14.3
1.44651102102766,14.3025
2.15623466599175,14.305
2.72429498630453,14.3075
3.02427206563844,14.31
2.98160889876205,14.3125
2.62432573224592,14.315
2.04697935042263,14.3175
1.34828764576992,14.32
0.614561796166228,14.3225
-0.0729973720807949,14.325
-0.649566978892095,14.3275
-1.08454224435054,14.33
-1.38425739641545,14.3325
-1.58479930540564,14.335
-1.7323076929141,14.3375
-1.84510926900464,14.34
-1.8958407504325,14.3425
-1.85097247698597,14.345
-1.72096322377626,14.3475
-1.54905792340841,14.35
-1.36096664609815,14.3525
-1.15270957404827,14.355
-0.923757897087001,14.3575
-0.697044403035062,14.36
-0.500361129400475,14.3625
-0.340494771816547,14.365
-0.203353839311267,14.3675
-0.0778194165396453,14.37
0.0266059038324013,14.3725
0.0936695213186632,14.375
0.131658762909852,14.3775
0.174379342762113,14.38
0.237817044015194,14.3825
0.293245119460495,14.385
0.308980586358942,14.3875
0.304493335647946,14.39
0.326763688495591,14.3925
0.378423804328438,14.395
0.409897803343227,14.3975
0.389953740920525,14.4
0.348343606106024,14.4025
0.33066855023962,14.405
0.336877263490628,14.4075
0.330387072966902,14.41
0.295996124952721,14.4125
0.260143573755015,14.415
0.25082533251516,14.4175
0.260726616715589,14.42
0.262975533925563,14.4225
0.249737188512549,14.425
0.238738604255752,14.4275
0.243426645342441,14.43
0.250700967598664,14.4325
0.23866042281266,14.435
0.209276781182019,14.4375
0.184197456776035,14.44
0.170816951678355,14.4425
0.159995154957865,14.445
0.156174325415228,14.4475
0.172105772464121,14.45
0.190650274599848,14.4525
0.175461048250969,14.455
0.128033300618322,14.4575
0.0907116906095954,14.46
0.0829519639063107,14.4625
0.0791502417808625,14.465
0.0630309517334605,14.4675
0.0560097652270664,14.47
0.0687105881804014,14.4725
0.0710860333218719,14.475
0.0424081137585225,14.4775
0.00944211205951245,14.48
0.000606505707326621,14.4825
0.000525668430054443,14.485
-0.0141431579374918,14.4875
-0.0283489328579413,14.49
-0.0161627727276411,14.4925
0.0102190803653952,14.495
0.0151671163727805,14.4975
-0.00836045273870845,14.5
-0.0298942089754944,14.5025
-0.0238143036323039,14.505
-0.00115190089599354,14.5075
0.00986017036416007,14.51
0.00490784754839185,14.5125
0.00771950325345672,14.515
0.0306114191863846,14.5175
0.0501929460832991,14.52
0.0368899773873414,14.5225
-0.00425164569187647,14.525
-0.0419291880725739,14.5275
-0.0602646516437034,14.53
-0.0688081233711205,14.5325
-0.0738997781405744,14.535
-0.0664612870723368,14.5375
-0.0417230204010413,14.54
-0.00924302841185834,14.5425
0.0204766056236352,14.545
0.0438223188547625,14.5475
0.0594854773538896,14.55
0.0681017102156518,14.5525
0.0712341069361818,14.555
0.0626204713231555,14.5575
0.0326168546402405,14.56
-0.00997707000551046,14.5625
-0.0361599534986481,14.565
-0.0281060692704347,14.5675
-0.00133027671609671,14.57
0.0121800590918251,14.5725
-0.00370929555947269,14.575
-0.0363985273665779,14.5775
-0.059702239565835,14.58
-0.0610878466795258,14.5825
-0.0543733184723892,14.585
-0.0643288572484603,14.5875
-0.0983971401074329,14.59
-0.135234015268463,14.5925
-0.147352498822385,14.595
-0.136707996734055,14.5975
-0.133051643361004,14.6
-0.14963411946278,14.6025
-0.163277849119417,14.605
-0.153982465303726,14.6075
-0.138868500436873,14.61
-0.142087665024138,14.6125
-0.152419646175061,14.615
-0.142487722584357,14.6175
-0.116652067199209,14.62
-0.105478535861498,14.6225
-0.118420774538169,14.625
-0.134045172928153,14.6275
-0.135312479168632,14.63
-0.126462372973329,14.6325
-0.115410683729851,14.635
-0.10300110092847,14.6375
-0.0893523701267371,14.64
-0.0733044769004065,14.6425
-0.0503846306264466,14.645
-0.0263150291190237,14.6475
-0.0217952108137252,14.65
-0.0461970578351485,14.6525
-0.0775160399189153,14.655
-0.0863366877156658,14.6575
-0.0711803773864655,14.66
-0.0551484544040346,14.6625
-0.0529427187181557,14.665
-0.0546039264917602,14.6675
-0.0452613344067067,14.67
-0.030601483246892,14.6725
-0.0264681947214021,14.675
-0.0269993033207744,14.6775
-0.010374866814341,14.68
0.0204974836369522,14.6825
0.0371125153041461,14.685
0.0328781001626422,14.6875
0.032374997109709,14.69
0.0417474558782425,14.6925
0.0335488692054225,14.695
-0.000581053543589505,14.6975
-0.0245122841291419,14.7
-0.00998287287319163,14.7025
0.0197256694506276,14.705
0.0266438714881844,14.7075
0.0145331834798577,14.71
0.0166512643336766,14.7125
0.0391354651970189,14.715
0.0518361269719289,14.7175
0.0376664241328721,14.72
0.018921297150172,14.7225
0.0238332688331013,14.725
0.0507962286779789,14.7275
0.0770711566174943,14.73
0.088340281951246,14.7325
0.0912618600689848,14.735
0.100579688698513,14.7375
0.116025544965516,14.74
0.118930775394299,14.7425
0.100554037074762,14.745
0.0828102959129806,14.7475
0.090764896708306,14.75
0.111817645346678,14.7525
0.109844048694192,14.755
0.0804537888816002,14.7575
0.061063501450187,14.76
0.0760186728046805,14.7625
0.102244570817884,14.765
0.108214104752366,14.7675
0.100146684353051,14.77
0.102939138658332,14.7725
0.114803371271268,14.775
0.112694101623768,14.7775
0.0938717589733106,14.78
0.0801444801490995,14.7825
0.0800339385711611,14.785
0.0755602732494582,14.7875
0.055330356066272,14.79
0.0369910197496799,14.7925
0.0406755766693063,14.795
0.0555994935525325,14.7975
0.0555908261486904,14.8
0.043339519324782,14.8025
0.0502213711351063,14.805
0.080838645056602,14.8075
0.0893431143166589,14.81
0.0418697079896211,14.8125
-0.021623169190173,14.815
-0.0334269302002806,14.8175
0.00529621610259637,14.82
0.0283017908854979,14.8225
0.0077964678603491,14.825
-0.00663265872732866,14.8275
0.0253051387265018,14.83
0.0683031099251572,14.8325
0.0724400415970601,14.835
0.052633534190535,14.8375
0.0548697147017707,14.84
0.0734039623616674,14.8425
0.0592213059479877,14.845
0.00466335534693198,14.8475
-0.0334650408309874,14.85
-0.0136691838248135,14.8525
0.0268776477251317,14.855
0.0254274583108272,14.8575
-0.0142075994832431,14.86
-0.0322172254993978,14.8625
-0.00759983430101716,14.865
0.0127924603839219,14.8675
-0.0104099771938468,14.87
-0.0532986123749369,14.8725
-0.0687024364085132,14.875
-0.0483582173760826,14.8775
-0.0236939139870505,14.88
-0.0214140515454676,14.8825
-0.032841025062212,14.885
-0.0257830786911106,14.8875
0.0136988667032914,14.89
0.0560350764384176,14.8925
0.0580313570306788,14.895
0.0182394390586456,14.8975
-0.0164096167656899,14.9
-0.00915745306122562,14.9025
0.017476174409905,14.905
0.0116110724702665,14.9075
-0.0350222204480434,14.91
-0.072063716681875,14.9125
-0.057622722981554,14.915
-0.0135241610591999,14.9175
0.00838459561625876,14.92
-0.0043559354654779,14.9225
-0.0190253541841914,14.925
-0.0126786791192805,14.9275
-5.9960335171666e-05,14.93
-0.00306985251237735,14.9325
-0.0201048266914403,14.935
-0.0358789217703182,14.9375
-0.0429057385145862,14.94
-0.043044523492129,14.9425
-0.0388814135536234,14.945
-0.0322287932173377,14.9475
-0.0254129278693023,14.95
-0.016527206138977,14.9525
0.000946492248786207,14.955
0.0226757933587768,14.9575
0.0263127431204002,14.96
0.000668244674000951,14.9625
-0.0263365826755689,14.965
-0.0194858013686431,14.9675
0.00906790140337771,14.97
0.0147707586208727,14.9725
-0.00912984789512294,14.975
-0.0194726490210136,14.9775
0.00690689400796554,14.98
0.0327965379343113,14.9825
0.0158781414267891,14.985
-0.0263459243520046,14.9875
-0.0423217734777907,14.99
-0.0222499744902751,14.9925
-0.00912911155228924,14.995
-0.0317424137299472,14.9975
-0.0623568291643715,15
