0.317693059628499,0.065
0.366568914955998,0.0675
0.415444770283502,0.07
0.610948191593401,0.0725
0.659824046920798,0.075
0.513196480938398,0.0775
0.268817204301102,0.08
0.171065493646099,0.0825
0.122189638318702,0.085
0.0244379276636986,0.0875
0.0244379276636986,0.09
-0.268817204301102,0.0925
-0.610948191593401,0.095
-1.0019550342131,0.0975
-1.2952101661779,0.1
-1.197458455523,0.1025
-0.708699902248302,0.105
-0.268817204301102,0.1075
0.366568914955998,0.11
1.099706744868,0.1125
1.8817204301075,0.115
2.663734115347,0.1175
3.2013685239492,0.12
3.4457478005865,0.1225
3.494623655914,0.125
3.1036168132942,0.1275
2.5659824046921,0.13
1.8817204301075,0.1325
1.4418377321603,0.135
1.0508308895406,0.1375
0.855327468230702,0.14
0.562072336265902,0.1425
0.171065493646099,0.145
-0.219941348973598,0.1475
-0.513196480938398,0.15
-0.513196480938398,0.1525
-0.415444770283502,0.155
-0.268817204301102,0.1575
-0.219941348973598,0.16
-0.268817204301102,0.1625
-0.317693059628499,0.165
-0.268817204301102,0.1675
-0.122189638318702,0.17
0.0733137829911978,0.1725
0.219941348973598,0.175
0.219941348973598,0.1775
0.122189638318702,0.18
-0.0244379276636986,0.1825
0.122189638318702,0.185
0.122189638318702,0.1875
0.366568914955998,0.19
0.513196480938398,0.1925
0.464320625610899,0.195
0.317693059628499,0.1975
0.219941348973598,0.2
0.317693059628499,0.2025
0.415444770283502,0.205
0.610948191593401,0.2075
0.610948191593401,0.21
0.513196480938398,0.2125
0.317693059628499,0.215
0.317693059628499,0.2175
0.415444770283502,0.22
0.513196480938398,0.2225
0.659824046920798,0.225
0.610948191593401,0.2275
0.562072336265902,0.23
0.268817204301102,0.2325
0.366568914955998,0.235
0.415444770283502,0.2375
0.562072336265902,0.24
0.659824046920798,0.2425
0.562072336265902,0.245
0.464320625610899,0.2475
0.268817204301102,0.25
0.366568914955998,0.2525
0.464320625610899,0.255
0.513196480938398,0.2575
0.659824046920798,0.26
0.610948191593401,0.2625
0.415444770283502,0.265
0.317693059628499,0.2675
0.415444770283502,0.27
0.562072336265902,0.2725
0.757575757575801,0.275
0.659824046920798,0.2775
0.610948191593401,0.28
0.366568914955998,0.2825
0.317693059628499,0.285
0.415444770283502,0.2875
0.464320625610899,0.29
0.659824046920798,0.2925
0.610948191593401,0.295
0.562072336265902,0.2975
0.415444770283502,0.3
0.366568914955998,0.3025
0.415444770283502,0.305
0.513196480938398,0.3075
0.659824046920798,0.31
0.562072336265902,0.3125
0.562072336265902,0.315
0.317693059628499,0.3175
0.415444770283502,0.32
0.513196480938398,0.3225
0.757575757575801,0.325
0.659824046920798,0.3275
0.562072336265902,0.33
0.464320625610899,0.3325
0.415444770283502,0.335
0.464320625610899,0.3375
0.513196480938398,0.34
0.708699902248302,0.3425
0.659824046920798,0.345
0.562072336265902,0.3475
0.366568914955998,0.35
0.464320625610899,0.3525
0.562072336265902,0.355
0.610948191593401,0.3575
0.806451612903198,0.36
0.708699902248302,0.3625
0.562072336265902,0.365
0.415444770283502,0.3675
0.464320625610899,0.37
0.513196480938398,0.3725
0.659824046920798,0.375
0.806451612903198,0.3775
0.708699902248302,0.38
0.562072336265902,0.3825
0.464320625610899,0.385
0.513196480938398,0.3875
0.610948191593401,0.39
0.757575757575801,0.3925
0.708699902248302,0.395
0.659824046920798,0.3975
0.415444770283502,0.4
0.366568914955998,0.4025
0.464320625610899,0.405
0.562072336265902,0.4075
0.708699902248302,0.41
0.610948191593401,0.4125
0.513196480938398,0.415
0.317693059628499,0.4175
0.317693059628499,0.42
0.366568914955998,0.4225
0.562072336265902,0.425
0.610948191593401,0.4275
0.562072336265902,0.43
0.415444770283502,0.4325
0.415444770283502,0.435
0.366568914955998,0.4375
0.464320625610899,0.44
0.708699902248302,0.4425
0.659824046920798,0.445
0.562072336265902,0.4475
0.464320625610899,0.45
0.317693059628499,0.4525
0.464320625610899,0.455
0.562072336265902,0.4575
0.757575757575801,0.46
0.659824046920798,0.4625
0.659824046920798,0.465
0.317693059628499,0.4675
0.366568914955998,0.47
0.415444770283502,0.4725
0.562072336265902,0.475
0.708699902248302,0.4775
0.610948191593401,0.48
0.562072336265902,0.4825
0.268817204301102,0.485
0.366568914955998,0.4875
0.464320625610899,0.49
0.562072336265902,0.4925
0.659824046920798,0.495
0.562072336265902,0.4975
0.415444770283502,0.5
0.317693059628499,0.5025
0.366568914955998,0.505
0.415444770283502,0.5075
0.513196480938398,0.51
0.610948191593401,0.5125
0.464320625610899,0.515
0.268817204301102,0.5175
0.268817204301102,0.52
0.366568914955998,0.5225
0.415444770283502,0.525
0.659824046920798,0.5275
0.562072336265902,0.53
0.464320625610899,0.5325
0.317693059628499,0.535
0.317693059628499,0.5375
0.415444770283502,0.54
0.513196480938398,0.5425
0.610948191593401,0.545
0.562072336265902,0.5475
0.464320625610899,0.55
0.317693059628499,0.5525
0.366568914955998,0.555
0.366568914955998,0.5575
0.610948191593401,0.56
0.610948191593401,0.5625
0.562072336265902,0.565
0.366568914955998,0.5675
0.317693059628499,0.57
0.415444770283502,0.5725
0.513196480938398,0.575
0.610948191593401,0.5775
0.659824046920798,0.58
0.610948191593401,0.5825
0.464320625610899,0.585
0.366568914955998,0.5875
0.464320625610899,0.59
0.562072336265902,0.5925
0.708699902248302,0.595
0.610948191593401,0.5975
0.513196480938398,0.6
0.317693059628499,0.6025
0.415444770283502,0.605
0.415444770283502,0.6075
0.513196480938398,0.61
0.659824046920798,0.6125
0.562072336265902,0.615
0.415444770283502,0.6175
0.268817204301102,0.62
0.415444770283502,0.6225
0.513196480938398,0.625
0.708699902248302,0.6275
0.659824046920798,0.63
0.708699902248302,0.6325
0.366568914955998,0.635
0.317693059628499,0.6375
0.415444770283502,0.64
0.513196480938398,0.6425
0.708699902248302,0.645
0.659824046920798,0.6475
0.464320625610899,0.65
0.268817204301102,0.6525
0.366568914955998,0.655
0.464320625610899,0.6575
0.610948191593401,0.66
0.659824046920798,0.6625
0.610948191593401,0.665
0.513196480938398,0.6675
0.464320625610899,0.67
0.415444770283502,0.6725
0.562072336265902,0.675
0.659824046920798,0.6775
0.659824046920798,0.68
0.562072336265902,0.6825
0.464320625610899,0.685
0.366568914955998,0.6875
0.415444770283502,0.69
0.513196480938398,0.6925
0.806451612903198,0.695
0.659824046920798,0.6975
0.610948191593401,0.7
0.366568914955998,0.7025
0.317693059628499,0.705
0.415444770283502,0.7075
0.464320625610899,0.71
0.659824046920798,0.7125
0.610948191593401,0.715
0.513196480938398,0.7175
0.219941348973598,0.72
0.366568914955998,0.7225
0.366568914955998,0.725
0.610948191593401,0.7275
0.659824046920798,0.73
0.610948191593401,0.7325
0.464320625610899,0.735
0.317693059628499,0.7375
0.415444770283502,0.74
0.464320625610899,0.7425
0.708699902248302,0.745
0.659824046920798,0.7475
0.610948191593401,0.75
0.366568914955998,0.7525
0.317693059628499,0.755
0.415444770283502,0.7575
0.513196480938398,0.76
0.806451612903198,0.7625
0.659824046920798,0.765
0.610948191593401,0.7675
0.268817204301102,0.77
0.366568914955998,0.7725
0.464320625610899,0.775
0.513196480938398,0.7775
0.708699902248302,0.78
0.610948191593401,0.7825
0.464320625610899,0.785
0.317693059628499,0.7875
0.415444770283502,0.79
0.366568914955998,0.7925
0.610948191593401,0.795
0.659824046920798,0.7975
0.610948191593401,0.8
0.415444770283502,0.8025
0.317693059628499,0.805
0.366568914955998,0.8075
0.513196480938398,0.81
0.562072336265902,0.8125
0.659824046920798,0.815
0.610948191593401,0.8175
0.366568914955998,0.82
0.317693059628499,0.8225
0.415444770283502,0.825
0.513196480938398,0.8275
0.659824046920798,0.83
0.562072336265902,0.8325
0.366568914955998,0.835
0.219941348973598,0.8375
0.268817204301102,0.84
0.415444770283502,0.8425
0.513196480938398,0.845
0.659824046920798,0.8475
0.610948191593401,0.85
0.562072336265902,0.8525
0.366568914955998,0.855
0.464320625610899,0.8575
0.562072336265902,0.86
0.708699902248302,0.8625
0.708699902248302,0.865
0.610948191593401,0.8675
0.464320625610899,0.87
0.366568914955998,0.8725
0.464320625610899,0.875
0.464320625610899,0.8775
0.659824046920798,0.88
0.659824046920798,0.8825
0.562072336265902,0.885
0.415444770283502,0.8875
0.317693059628499,0.89
0.464320625610899,0.8925
0.513196480938398,0.895
0.659824046920798,0.8975
0.610948191593401,0.9
0.464320625610899,0.9025
0.415444770283502,0.905
0.317693059628499,0.9075
0.366568914955998,0.91
0.562072336265902,0.9125
0.513196480938398,0.915
0.317693059628499,0.9175
0.0733137829911978,0.92
-0.317693059628499,0.9225
-0.464320625610899,0.925
-0.562072336265902,0.9275
-0.806451612903198,0.93
-0.953079178885599,0.9325
-1.099706744868,0.935
-1.099706744868,0.9375
-0.708699902248302,0.94
-0.0244379276636986,0.9425
0.953079178885599,0.945
2.1260997067449,0.9475
2.8592375366569,0.95
3.2991202346041,0.9525
3.2991202346041,0.955
3.2502443792766,0.9575
3.0547409579668,0.96
2.8103616813294,0.9625
2.3216031280547,0.965
1.7350928641251,0.9675
1.1485826001955,0.97
0.708699902248302,0.9725
0.317693059628499,0.975
0.122189638318702,0.9775
0.0244379276636986,0.98
-0.171065493646099,0.9825
-0.317693059628499,0.985
-0.513196480938398,0.9875
-0.610948191593401,0.99
-0.513196480938398,0.9925
-0.366568914955998,0.995
-0.0733137829911978,0.9975
-0.0244379276636986,1
0.0244379276636986,1.0025
-0.0733137829911978,1.005
-0.122189638318702,1.0075
0.0244379276636986,1.01
0.219941348973598,1.0125
0.366568914955998,1.015
0.317693059628499,1.0175
0.268817204301102,1.02
0.0733137829911978,1.0225
0.171065493646099,1.025
0.268817204301102,1.0275
0.464320625610899,1.03
0.562072336265902,1.0325
0.513196480938398,1.035
0.366568914955998,1.0375
0.317693059628499,1.04
0.317693059628499,1.0425
0.366568914955998,1.045
0.513196480938398,1.0475
0.610948191593401,1.05
0.562072336265902,1.0525
0.464320625610899,1.055
0.317693059628499,1.0575
0.415444770283502,1.06
0.464320625610899,1.0625
0.708699902248302,1.065
0.610948191593401,1.0675
0.562072336265902,1.07
0.366568914955998,1.0725
0.317693059628499,1.075
0.464320625610899,1.0775
0.659824046920798,1.08
0.659824046920798,1.0825
0.610948191593401,1.085
0.464320625610899,1.0875
0.415444770283502,1.09
0.415444770283502,1.0925
0.415444770283502,1.095
0.610948191593401,1.0975
0.659824046920798,1.1
0.562072336265902,1.1025
0.366568914955998,1.105
0.317693059628499,1.1075
0.415444770283502,1.11
0.610948191593401,1.1125
0.513196480938398,1.115
0.659824046920798,1.1175
0.562072336265902,1.12
0.415444770283502,1.1225
0.366568914955998,1.125
0.415444770283502,1.1275
0.610948191593401,1.13
0.708699902248302,1.1325
0.610948191593401,1.135
0.513196480938398,1.1375
0.317693059628499,1.14
0.366568914955998,1.1425
0.513196480938398,1.145
0.562072336265902,1.1475
0.708699902248302,1.15
0.610948191593401,1.1525
0.610948191593401,1.155
0.464320625610899,1.1575
0.415444770283502,1.16
0.464320625610899,1.1625
0.659824046920798,1.165
0.659824046920798,1.1675
0.610948191593401,1.17
0.464320625610899,1.1725
0.415444770283502,1.175
0.464320625610899,1.1775
0.562072336265902,1.18
0.610948191593401,1.1825
0.708699902248302,1.185
0.659824046920798,1.1875
0.415444770283502,1.19
0.464320625610899,1.1925
0.562072336265902,1.195
0.659824046920798,1.1975
0.806451612903198,1.2
0.757575757575801,1.2025
0.659824046920798,1.205
0.513196480938398,1.2075
0.513196480938398,1.21
0.610948191593401,1.2125
0.806451612903198,1.215
0.806451612903198,1.2175
0.708699902248302,1.22
0.562072336265902,1.2225
0.415444770283502,1.225
0.464320625610899,1.2275
0.562072336265902,1.23
0.806451612903198,1.2325
0.708699902248302,1.235
0.562072336265902,1.2375
0.464320625610899,1.24
0.366568914955998,1.2425
0.415444770283502,1.245
0.562072336265902,1.2475
0.659824046920798,1.25
0.610948191593401,1.2525
0.513196480938398,1.255
0.366568914955998,1.2575
0.366568914955998,1.26
0.464320625610899,1.2625
0.562072336265902,1.265
0.659824046920798,1.2675
0.562072336265902,1.27
0.464320625610899,1.2725
0.366568914955998,1.275
0.366568914955998,1.2775
0.415444770283502,1.28
0.610948191593401,1.2825
0.659824046920798,1.285
0.562072336265902,1.2875
0.415444770283502,1.29
0.317693059628499,1.2925
0.415444770283502,1.295
0.513196480938398,1.2975
0.659824046920798,1.3
0.659824046920798,1.3025
0.610948191593401,1.305
0.415444770283502,1.3075
0.366568914955998,1.31
0.464320625610899,1.3125
0.562072336265902,1.315
0.708699902248302,1.3175
0.610948191593401,1.32
0.464320625610899,1.3225
0.268817204301102,1.325
0.366568914955998,1.3275
0.513196480938398,1.33
0.513196480938398,1.3325
0.659824046920798,1.335
0.562072336265902,1.3375
0.415444770283502,1.34
0.317693059628499,1.3425
0.366568914955998,1.345
0.513196480938398,1.3475
0.513196480938398,1.35
0.562072336265902,1.3525
0.513196480938398,1.355
0.415444770283502,1.3575
0.317693059628499,1.36
0.317693059628499,1.3625
0.610948191593401,1.365
0.708699902248302,1.3675
0.610948191593401,1.37
0.464320625610899,1.3725
0.317693059628499,1.375
0.317693059628499,1.3775
0.415444770283502,1.38
0.513196480938398,1.3825
0.659824046920798,1.385
0.610948191593401,1.3875
0.513196480938398,1.39
0.366568914955998,1.3925
0.366568914955998,1.395
0.513196480938398,1.3975
0.562072336265902,1.4
0.659824046920798,1.4025
0.610948191593401,1.405
0.415444770283502,1.4075
0.317693059628499,1.41
0.415444770283502,1.4125
0.513196480938398,1.415
0.562072336265902,1.4175
0.659824046920798,1.42
0.513196480938398,1.4225
0.366568914955998,1.425
0.317693059628499,1.4275
0.415444770283502,1.43
0.513196480938398,1.4325
0.659824046920798,1.435
0.610948191593401,1.4375
0.513196480938398,1.44
0.268817204301102,1.4425
0.415444770283502,1.445
0.415444770283502,1.4475
0.610948191593401,1.45
0.708699902248302,1.4525
0.610948191593401,1.455
0.464320625610899,1.4575
0.317693059628499,1.46
0.415444770283502,1.4625
0.562072336265902,1.465
0.659824046920798,1.4675
0.659824046920798,1.47
0.562072336265902,1.4725
0.464320625610899,1.475
0.366568914955998,1.4775
0.415444770283502,1.48
0.513196480938398,1.4825
0.659824046920798,1.485
0.659824046920798,1.4875
0.562072336265902,1.49
0.268817204301102,1.4925
0.366568914955998,1.495
0.464320625610899,1.4975
0.562072336265902,1.5
0.659824046920798,1.5025
0.610948191593401,1.505
0.513196480938398,1.5075
0.366568914955998,1.51
0.415444770283502,1.5125
0.366568914955998,1.515
0.513196480938398,1.5175
0.659824046920798,1.52
0.562072336265902,1.5225
0.415444770283502,1.525
0.317693059628499,1.5275
0.366568914955998,1.53
0.513196480938398,1.5325
0.708699902248302,1.535
0.610948191593401,1.5375
0.562072336265902,1.54
0.415444770283502,1.5425
0.366568914955998,1.545
0.464320625610899,1.5475
0.659824046920798,1.55
0.659824046920798,1.5525
0.610948191593401,1.555
0.464320625610899,1.5575
0.268817204301102,1.56
0.317693059628499,1.5625
0.415444770283502,1.565
0.708699902248302,1.5675
0.659824046920798,1.57
0.610948191593401,1.5725
0.513196480938398,1.575
0.317693059628499,1.5775
0.415444770283502,1.58
0.415444770283502,1.5825
0.806451612903198,1.585
0.659824046920798,1.5875
0.562072336265902,1.59
0.366568914955998,1.5925
0.317693059628499,1.595
0.415444770283502,1.5975
0.513196480938398,1.6
0.562072336265902,1.6025
0.610948191593401,1.605
0.562072336265902,1.6075
0.464320625610899,1.61
0.317693059628499,1.6125
0.415444770283502,1.615
0.513196480938398,1.6175
0.708699902248302,1.62
0.610948191593401,1.6225
0.415444770283502,1.625
0.415444770283502,1.6275
0.366568914955998,1.63
0.513196480938398,1.6325
0.659824046920798,1.635
0.659824046920798,1.6375
0.562072336265902,1.64
0.366568914955998,1.6425
0.317693059628499,1.645
0.366568914955998,1.6475
0.464320625610899,1.65
0.610948191593401,1.6525
0.610948191593401,1.655
0.464320625610899,1.6575
0.219941348973598,1.66
0.317693059628499,1.6625
0.366568914955998,1.665
0.464320625610899,1.6675
0.610948191593401,1.67
0.659824046920798,1.6725
0.610948191593401,1.675
0.366568914955998,1.6775
0.366568914955998,1.68
0.513196480938398,1.6825
0.708699902248302,1.685
0.757575757575801,1.6875
0.610948191593401,1.69
0.513196480938398,1.6925
0.268817204301102,1.695
0.415444770283502,1.6975
0.415444770283502,1.7
0.562072336265902,1.7025
0.659824046920798,1.705
0.610948191593401,1.7075
0.513196480938398,1.71
0.317693059628499,1.7125
0.415444770283502,1.715
0.562072336265902,1.7175
0.610948191593401,1.72
0.610948191593401,1.7225
0.610948191593401,1.725
0.415444770283502,1.7275
0.366568914955998,1.73
0.464320625610899,1.7325
0.610948191593401,1.735
0.610948191593401,1.7375
0.464320625610899,1.74
0.317693059628499,1.7425
-0.0244379276636986,1.745
-0.268817204301102,1.7475
-0.415444770283502,1.75
-0.464320625610899,1.7525
-0.757575757575801,1.755
-1.0508308895406,1.7575
-1.099706744868,1.76
-1.0508308895406,1.7625
-0.610948191593401,1.765
0.171065493646099,1.7675
1.197458455523,1.77
2.2238514173998,1.7725
2.9081133919844,1.775
3.2502443792766,1.7775
3.2991202346041,1.78
3.2991202346041,1.7825
3.0058651026393,1.785
2.8103616813294,1.7875
2.2238514173998,1.79
1.5395894428152,1.7925
1.0019550342131,1.795
0.562072336265902,1.7975
0.268817204301102,1.8
0.122189638318702,1.8025
-0.0244379276636986,1.805
-0.268817204301102,1.8075
-0.415444770283502,1.81
-0.659824046920798,1.8125
-0.610948191593401,1.815
-0.415444770283502,1.8175
-0.268817204301102,1.82
-0.122189638318702,1.8225
-0.122189638318702,1.825
-0.171065493646099,1.8275
-0.219941348973598,1.83
-0.0244379276636986,1.8325
0.122189638318702,1.835
0.366568914955998,1.8375
0.317693059628499,1.84
0.219941348973598,1.8425
0.122189638318702,1.845
0.122189638318702,1.8475
0.268817204301102,1.85
0.317693059628499,1.8525
0.513196480938398,1.855
0.513196480938398,1.8575
0.366568914955998,1.86
0.366568914955998,1.8625
0.268817204301102,1.865
0.268817204301102,1.8675
0.464320625610899,1.87
0.610948191593401,1.8725
0.562072336265902,1.875
0.366568914955998,1.8775
0.415444770283502,1.88
0.366568914955998,1.8825
0.415444770283502,1.885
0.659824046920798,1.8875
0.659824046920798,1.89
0.562072336265902,1.8925
0.317693059628499,1.895
0.317693059628499,1.8975
0.415444770283502,1.9
0.464320625610899,1.9025
0.708699902248302,1.905
0.659824046920798,1.9075
0.513196480938398,1.91
0.268817204301102,1.9125
0.317693059628499,1.915
0.464320625610899,1.9175
0.659824046920798,1.92
0.659824046920798,1.9225
0.610948191593401,1.925
0.513196480938398,1.9275
0.219941348973598,1.93
0.366568914955998,1.9325
0.513196480938398,1.935
0.513196480938398,1.9375
0.659824046920798,1.94
0.562072336265902,1.9425
0.415444770283502,1.945
0.317693059628499,1.9475
0.366568914955998,1.95
0.415444770283502,1.9525
0.562072336265902,1.955
0.659824046920798,1.9575
0.464320625610899,1.96
0.366568914955998,1.9625
0.366568914955998,1.965
0.415444770283502,1.9675
0.513196480938398,1.97
0.708699902248302,1.9725
0.659824046920798,1.975
0.610948191593401,1.9775
0.317693059628499,1.98
0.366568914955998,1.9825
0.464320625610899,1.985
0.513196480938398,1.9875
0.708699902248302,1.99
0.610948191593401,1.9925
0.562072336265902,1.995
0.513196480938398,1.9975
0.415444770283502,2
0.562072336265902,2.0025
0.659824046920798,2.005
0.757575757575801,2.0075
0.659824046920798,2.01
0.513196480938398,2.0125
0.464320625610899,2.015
0.513196480938398,2.0175
0.659824046920798,2.02
0.757575757575801,2.0225
0.757575757575801,2.025
0.806451612903198,2.0275
0.513196480938398,2.03
0.513196480938398,2.0325
0.562072336265902,2.035
0.659824046920798,2.0375
0.806451612903198,2.04
0.708699902248302,2.0425
0.757575757575801,2.045
0.562072336265902,2.0475
0.464320625610899,2.05
0.513196480938398,2.0525
0.659824046920798,2.055
0.708699902248302,2.0575
0.659824046920798,2.06
0.464320625610899,2.0625
0.366568914955998,2.065
0.415444770283502,2.0675
0.464320625610899,2.07
0.610948191593401,2.0725
0.659824046920798,2.075
0.513196480938398,2.0775
0.366568914955998,2.08
0.317693059628499,2.0825
0.415444770283502,2.085
0.464320625610899,2.0875
0.806451612903198,2.09
0.610948191593401,2.0925
0.464320625610899,2.095
0.317693059628499,2.0975
0.366568914955998,2.1
0.464320625610899,2.1025
0.610948191593401,2.105
0.708699902248302,2.1075
0.610948191593401,2.11
0.513196480938398,2.1125
0.415444770283502,2.115
0.366568914955998,2.1175
0.464320625610899,2.12
0.562072336265902,2.1225
0.659824046920798,2.125
0.562072336265902,2.1275
0.415444770283502,2.13
0.317693059628499,2.1325
0.415444770283502,2.135
0.415444770283502,2.1375
0.659824046920798,2.14
0.610948191593401,2.1425
0.562072336265902,2.145
0.464320625610899,2.1475
0.366568914955998,2.15
0.415444770283502,2.1525
0.513196480938398,2.155
0.659824046920798,2.1575
0.562072336265902,2.16
0.610948191593401,2.1625
0.366568914955998,2.165
0.317693059628499,2.1675
0.415444770283502,2.17
0.562072336265902,2.1725
0.610948191593401,2.175
0.562072336265902,2.1775
0.464320625610899,2.18
0.268817204301102,2.1825
0.366568914955998,2.185
0.513196480938398,2.1875
0.562072336265902,2.19
0.610948191593401,2.1925
0.610948191593401,2.195
0.317693059628499,2.1975
0.366568914955998,2.2
0.415444770283502,2.2025
0.513196480938398,2.205
0.610948191593401,2.2075
0.610948191593401,2.21
0.610948191593401,2.2125
0.268817204301102,2.215
0.317693059628499,2.2175
0.415444770283502,2.22
0.513196480938398,2.2225
0.659824046920798,2.225
0.610948191593401,2.2275
0.464320625610899,2.23
0.268817204301102,2.2325
0.366568914955998,2.235
0.464320625610899,2.2375
0.562072336265902,2.24
0.659824046920798,2.2425
0.610948191593401,2.245
0.562072336265902,2.2475
0.317693059628499,2.25
0.415444770283502,2.2525
0.513196480938398,2.255
0.659824046920798,2.2575
0.659824046920798,2.26
0.562072336265902,2.2625
0.317693059628499,2.265
0.366568914955998,2.2675
0.415444770283502,2.27
0.513196480938398,2.2725
0.610948191593401,2.275
0.659824046920798,2.2775
0.659824046920798,2.28
0.268817204301102,2.2825
0.366568914955998,2.285
0.415444770283502,2.2875
0.708699902248302,2.29
0.708699902248302,2.2925
0.610948191593401,2.295
0.562072336265902,2.2975
0.317693059628499,2.3
0.415444770283502,2.3025
0.464320625610899,2.305
0.562072336265902,2.3075
0.610948191593401,2.31
0.562072336265902,2.3125
0.513196480938398,2.315
0.317693059628499,2.3175
0.415444770283502,2.32
0.562072336265902,2.3225
0.757575757575801,2.325
0.610948191593401,2.3275
0.708699902248302,2.33
0.317693059628499,2.3325
0.366568914955998,2.335
0.415444770283502,2.3375
0.513196480938398,2.34
0.659824046920798,2.3425
0.610948191593401,2.345
0.513196480938398,2.3475
0.268817204301102,2.35
0.366568914955998,2.3525
0.464320625610899,2.355
0.562072336265902,2.3575
0.659824046920798,2.36
0.562072336265902,2.3625
0.464320625610899,2.365
0.317693059628499,2.3675
0.366568914955998,2.37
0.562072336265902,2.3725
0.562072336265902,2.375
0.659824046920798,2.3775
0.513196480938398,2.38
0.317693059628499,2.3825
0.317693059628499,2.385
0.415444770283502,2.3875
0.464320625610899,2.39
0.806451612903198,2.3925
0.610948191593401,2.395
0.610948191593401,2.3975
0.317693059628499,2.4
0.366568914955998,2.4025
0.415444770283502,2.405
0.513196480938398,2.4075
0.659824046920798,2.41
0.610948191593401,2.4125
0.513196480938398,2.415
0.317693059628499,2.4175
0.366568914955998,2.42
0.562072336265902,2.4225
0.708699902248302,2.425
0.708699902248302,2.4275
0.610948191593401,2.43
0.415444770283502,2.4325
0.366568914955998,2.435
0.415444770283502,2.4375
0.610948191593401,2.44
0.562072336265902,2.4425
0.610948191593401,2.445
0.513196480938398,2.4475
0.219941348973598,2.45
0.317693059628499,2.4525
0.366568914955998,2.455
0.562072336265902,2.4575
0.659824046920798,2.46
0.610948191593401,2.4625
0.513196480938398,2.465
0.171065493646099,2.4675
0.317693059628499,2.47
0.415444770283502,2.4725
0.659824046920798,2.475
0.610948191593401,2.4775
0.513196480938398,2.48
0.464320625610899,2.4825
0.317693059628499,2.485
0.415444770283502,2.4875
0.464320625610899,2.49
0.610948191593401,2.4925
0.708699902248302,2.495
0.708699902248302,2.4975
0.513196480938398,2.5
0.415444770283502,2.5025
0.464320625610899,2.505
0.659824046920798,2.5075
0.708699902248302,2.51
0.659824046920798,2.5125
0.659824046920798,2.515
0.317693059628499,2.5175
0.366568914955998,2.52
0.464320625610899,2.5225
0.610948191593401,2.525
0.659824046920798,2.5275
0.610948191593401,2.53
0.415444770283502,2.5325
0.219941348973598,2.535
0.366568914955998,2.5375
0.415444770283502,2.54
0.610948191593401,2.5425
0.610948191593401,2.545
0.562072336265902,2.5475
0.415444770283502,2.55
0.268817204301102,2.5525
0.317693059628499,2.555
0.317693059628499,2.5575
0.415444770283502,2.56
0.171065493646099,2.5625
-0.219941348973598,2.565
-0.708699902248302,2.5675
-0.953079178885599,2.57
-1.099706744868,2.5725
-1.099706744868,2.575
-0.855327468230702,2.5775
-0.610948191593401,2.58
-0.0733137829911978,2.5825
0.317693059628499,2.585
1.3929618768328,2.5875
2.4682306940371,2.59
3.2502443792766,2.5925
3.5923753665689,2.595
3.5434995112414,2.5975
3.1524926686217,2.6
2.6148582600196,2.6025
2.3216031280547,2.605
1.8817204301075,2.6075
1.5884652981427,2.61
1.099706744868,2.6125
0.610948191593401,2.615
0.171065493646099,2.6175
-0.219941348973598,2.62
-0.317693059628499,2.6225
-0.366568914955998,2.625
-0.219941348973598,2.6275
-0.366568914955998,2.63
-0.268817204301102,2.6325
-0.562072336265902,2.635
-0.464320625610899,2.6375
-0.317693059628499,2.64
-0.171065493646099,2.6425
0.0733137829911978,2.645
0.0733137829911978,2.6475
0.122189638318702,2.65
0.0244379276636986,2.6525
0.0244379276636986,2.655
0.171065493646099,2.6575
0.317693059628499,2.66
0.464320625610899,2.6625
0.415444770283502,2.665
0.219941348973598,2.6675
0.219941348973598,2.67
0.317693059628499,2.6725
0.415444770283502,2.675
0.464320625610899,2.6775
0.562072336265902,2.68
0.562072336265902,2.6825
0.366568914955998,2.685
0.317693059628499,2.6875
0.415444770283502,2.69
0.415444770283502,2.6925
0.659824046920798,2.695
0.610948191593401,2.6975
0.513196480938398,2.7
0.415444770283502,2.7025
0.366568914955998,2.705
0.415444770283502,2.7075
0.708699902248302,2.71
0.659824046920798,2.7125
0.610948191593401,2.715
0.513196480938398,2.7175
0.317693059628499,2.72
0.366568914955998,2.7225
0.464320625610899,2.725
0.708699902248302,2.7275
0.610948191593401,2.73
0.513196480938398,2.7325
0.317693059628499,2.735
0.317693059628499,2.7375
0.415444770283502,2.74
0.464320625610899,2.7425
0.659824046920798,2.745
0.610948191593401,2.7475
0.562072336265902,2.75
0.415444770283502,2.7525
0.366568914955998,2.755
0.464320625610899,2.7575
0.562072336265902,2.76
0.708699902248302,2.7625
0.610948191593401,2.765
0.415444770283502,2.7675
0.268817204301102,2.77
0.366568914955998,2.7725
0.366568914955998,2.775
0.513196480938398,2.7775
0.659824046920798,2.78
0.610948191593401,2.7825
0.415444770283502,2.785
0.366568914955998,2.7875
0.415444770283502,2.79
0.513196480938398,2.7925
0.562072336265902,2.795
0.659824046920798,2.7975
0.562072336265902,2.8
0.366568914955998,2.8025
0.366568914955998,2.805
0.464320625610899,2.8075
0.464320625610899,2.81
0.659824046920798,2.8125
0.659824046920798,2.815
0.659824046920798,2.8175
0.317693059628499,2.82
0.464320625610899,2.8225
0.562072336265902,2.825
0.610948191593401,2.8275
0.806451612903198,2.83
0.708699902248302,2.8325
0.610948191593401,2.835
0.513196480938398,2.8375
0.513196480938398,2.84
0.659824046920798,2.8425
0.659824046920798,2.845
0.757575757575801,2.8475
0.708699902248302,2.85
0.659824046920798,2.8525
0.513196480938398,2.855
0.513196480938398,2.8575
0.659824046920798,2.86
0.904203323558201,2.8625
0.708699902248302,2.865
0.610948191593401,2.8675
0.415444770283502,2.87
0.415444770283502,2.8725
0.464320625610899,2.875
0.562072336265902,2.8775
0.708699902248302,2.88
0.610948191593401,2.8825
0.513196480938398,2.885
0.366568914955998,2.8875
0.366568914955998,2.89
0.366568914955998,2.8925
0.610948191593401,2.895
0.659824046920798,2.8975
0.610948191593401,2.9
0.562072336265902,2.9025
0.415444770283502,2.905
0.415444770283502,2.9075
0.513196480938398,2.91
0.757575757575801,2.9125
0.659824046920798,2.915
0.610948191593401,2.9175
0.366568914955998,2.92
0.366568914955998,2.9225
0.464320625610899,2.925
0.464320625610899,2.9275
0.610948191593401,2.93
0.659824046920798,2.9325
0.610948191593401,2.935
0.268817204301102,2.9375
0.366568914955998,2.94
0.415444770283502,2.9425
0.513196480938398,2.945
0.659824046920798,2.9475
0.562072336265902,2.95
0.415444770283502,2.9525
0.268817204301102,2.955
0.317693059628499,2.9575
0.415444770283502,2.96
0.757575757575801,2.9625
0.659824046920798,2.965
0.562072336265902,2.9675
0.366568914955998,2.97
0.317693059628499,2.9725
0.366568914955998,2.975
0.464320625610899,2.9775
0.610948191593401,2.98
0.610948191593401,2.9825
0.464320625610899,2.985
0.317693059628499,2.9875
0.317693059628499,2.99
0.415444770283502,2.9925
0.415444770283502,2.995
0.659824046920798,2.9975
0.562072336265902,3
0.610948191593401,3.0025
0.219941348973598,3.005
0.366568914955998,3.0075
0.317693059628499,3.01
0.513196480938398,3.0125
0.659824046920798,3.015
0.562072336265902,3.0175
0.366568914955998,3.02
0.464320625610899,3.0225
0.366568914955998,3.025
0.513196480938398,3.0275
0.610948191593401,3.03
0.659824046920798,3.0325
0.562072336265902,3.035
0.415444770283502,3.0375
0.317693059628499,3.04
0.415444770283502,3.0425
0.610948191593401,3.045
0.659824046920798,3.0475
0.610948191593401,3.05
0.513196480938398,3.0525
0.464320625610899,3.055
0.317693059628499,3.0575
0.464320625610899,3.06
0.562072336265902,3.0625
0.659824046920798,3.065
0.610948191593401,3.0675
0.513196480938398,3.07
0.366568914955998,3.0725
0.366568914955998,3.075
0.366568914955998,3.0775
0.513196480938398,3.08
0.659824046920798,3.0825
0.562072336265902,3.085
0.415444770283502,3.0875
0.317693059628499,3.09
0.415444770283502,3.0925
0.464320625610899,3.095
0.708699902248302,3.0975
0.708699902248302,3.1
0.659824046920798,3.1025
0.366568914955998,3.105
0.366568914955998,3.1075
0.415444770283502,3.11
0.610948191593401,3.1125
0.757575757575801,3.115
0.659824046920798,3.1175
0.610948191593401,3.12
0.366568914955998,3.1225
0.317693059628499,3.125
0.464320625610899,3.1275
0.610948191593401,3.13
0.659824046920798,3.1325
0.610948191593401,3.135
0.415444770283502,3.1375
0.366568914955998,3.14
0.415444770283502,3.1425
0.366568914955998,3.145
0.562072336265902,3.1475
0.659824046920798,3.15
0.562072336265902,3.1525
0.464320625610899,3.155
0.366568914955998,3.1575
0.415444770283502,3.16
0.464320625610899,3.1625
0.610948191593401,3.165
0.610948191593401,3.1675
0.562072336265902,3.17
0.317693059628499,3.1725
0.317693059628499,3.175
0.464320625610899,3.1775
0.659824046920798,3.18
0.708699902248302,3.1825
0.610948191593401,3.185
0.562072336265902,3.1875
0.317693059628499,3.19
0.366568914955998,3.1925
0.415444770283502,3.195
0.562072336265902,3.1975
0.659824046920798,3.2
0.562072336265902,3.2025
0.464320625610899,3.205
0.317693059628499,3.2075
0.415444770283502,3.21
0.464320625610899,3.2125
0.610948191593401,3.215
0.659824046920798,3.2175
0.610948191593401,3.22
0.268817204301102,3.2225
0.317693059628499,3.225
0.415444770283502,3.2275
0.562072336265902,3.23
0.610948191593401,3.2325
0.610948191593401,3.235
0.659824046920798,3.2375
0.415444770283502,3.24
0.415444770283502,3.2425
0.464320625610899,3.245
0.610948191593401,3.2475
0.659824046920798,3.25
0.610948191593401,3.2525
0.464320625610899,3.255
0.415444770283502,3.2575
0.366568914955998,3.26
0.366568914955998,3.2625
0.562072336265902,3.265
0.610948191593401,3.2675
0.562072336265902,3.27
0.366568914955998,3.2725
0.317693059628499,3.275
0.366568914955998,3.2775
0.464320625610899,3.28
0.610948191593401,3.2825
0.610948191593401,3.285
0.562072336265902,3.2875
0.268817204301102,3.29
0.317693059628499,3.2925
0.415444770283502,3.295
0.610948191593401,3.2975
0.708699902248302,3.3
0.659824046920798,3.3025
0.610948191593401,3.305
0.464320625610899,3.3075
0.415444770283502,3.31
0.562072336265902,3.3125
0.708699902248302,3.315
0.708699902248302,3.3175
0.659824046920798,3.32
0.464320625610899,3.3225
0.464320625610899,3.325
0.415444770283502,3.3275
0.610948191593401,3.33
0.610948191593401,3.3325
0.659824046920798,3.335
0.562072336265902,3.3375
0.464320625610899,3.34
0.317693059628499,3.3425
0.415444770283502,3.345
0.610948191593401,3.3475
0.708699902248302,3.35
0.659824046920798,3.3525
0.610948191593401,3.355
0.268817204301102,3.3575
0.268817204301102,3.36
0.268817204301102,3.3625
0.219941348973598,3.365
0.122189638318702,3.3675
-0.171065493646099,3.37
-0.513196480938398,3.3725
-0.953079178885599,3.375
-1.2463343108504,3.3775
-1.2463343108504,3.38
-1.0019550342131,3.3825
-0.513196480938398,3.385
-0.0244379276636986,3.3875
0.708699902248302,3.39
1.5884652981427,3.3925
2.5659824046921,3.395
3.2502443792766,3.3975
3.6901270772239,3.4
3.6901270772239,3.4025
3.2991202346041,3.405
2.663734115347,3.4075
2.2727272727273,3.41
1.7839687194526,3.4125
1.3929618768328,3.415
1.099706744868,3.4175
0.659824046920798,3.42
0.317693059628499,3.4225
-0.317693059628499,3.425
-0.464320625610899,3.4275
-0.513196480938398,3.43
-0.513196480938398,3.4325
-0.415444770283502,3.435
-0.464320625610899,3.4375
-0.464320625610899,3.44
-0.562072336265902,3.4425
-0.415444770283502,3.445
-0.171065493646099,3.4475
-0.0244379276636986,3.45
0.122189638318702,3.4525
0.0733137829911978,3.455
0.0733137829911978,3.4575
-0.0244379276636986,3.46
0.0733137829911978,3.4625
0.268817204301102,3.465
0.513196480938398,3.4675
0.415444770283502,3.47
0.415444770283502,3.4725
0.219941348973598,3.475
0.219941348973598,3.4775
0.366568914955998,3.48
0.464320625610899,3.4825
0.610948191593401,3.485
0.513196480938398,3.4875
0.464320625610899,3.49
0.171065493646099,3.4925
0.317693059628499,3.495
0.366568914955998,3.4975
0.513196480938398,3.5
0.659824046920798,3.5025
0.610948191593401,3.505
0.415444770283502,3.5075
0.268817204301102,3.51
0.366568914955998,3.5125
0.366568914955998,3.515
0.757575757575801,3.5175
0.610948191593401,3.52
0.464320625610899,3.5225
0.366568914955998,3.525
0.366568914955998,3.5275
0.415444770283502,3.53
0.513196480938398,3.5325
0.757575757575801,3.535
0.610948191593401,3.5375
0.513196480938398,3.54
0.366568914955998,3.5425
0.366568914955998,3.545
0.415444770283502,3.5475
0.610948191593401,3.55
0.659824046920798,3.5525
0.610948191593401,3.555
0.366568914955998,3.5575
0.219941348973598,3.56
0.366568914955998,3.5625
0.464320625610899,3.565
0.659824046920798,3.5675
0.610948191593401,3.57
0.562072336265902,3.5725
0.366568914955998,3.575
0.317693059628499,3.5775
0.415444770283502,3.58
0.464320625610899,3.5825
0.610948191593401,3.585
0.610948191593401,3.5875
0.610948191593401,3.59
0.464320625610899,3.5925
0.366568914955998,3.595
0.464320625610899,3.5975
0.513196480938398,3.6
0.659824046920798,3.6025
0.610948191593401,3.605
0.464320625610899,3.6075
0.317693059628499,3.61
0.366568914955998,3.6125
0.562072336265902,3.615
0.659824046920798,3.6175
0.708699902248302,3.62
0.610948191593401,3.6225
0.562072336265902,3.625
0.317693059628499,3.6275
0.464320625610899,3.63
0.513196480938398,3.6325
0.708699902248302,3.635
0.757575757575801,3.6375
0.659824046920798,3.64
0.464320625610899,3.6425
0.464320625610899,3.645
0.562072336265902,3.6475
0.610948191593401,3.65
0.806451612903198,3.6525
0.806451612903198,3.655
0.659824046920798,3.6575
0.610948191593401,3.66
0.513196480938398,3.6625
0.610948191593401,3.665
0.708699902248302,3.6675
0.757575757575801,3.67
0.708699902248302,3.6725
0.562072336265902,3.675
0.513196480938398,3.6775
0.464320625610899,3.68
0.562072336265902,3.6825
0.659824046920798,3.685
0.708699902248302,3.6875
0.610948191593401,3.69
0.415444770283502,3.6925
0.317693059628499,3.695
0.415444770283502,3.6975
0.513196480938398,3.7
0.659824046920798,3.7025
0.659824046920798,3.705
0.659824046920798,3.7075
0.415444770283502,3.71
0.366568914955998,3.7125
0.464320625610899,3.715
0.513196480938398,3.7175
0.659824046920798,3.72
0.659824046920798,3.7225
0.562072336265902,3.725
0.415444770283502,3.7275
0.366568914955998,3.73
0.464320625610899,3.7325
0.610948191593401,3.735
0.659824046920798,3.7375
0.562072336265902,3.74
0.562072336265902,3.7425
0.366568914955998,3.745
0.366568914955998,3.7475
0.464320625610899,3.75
0.659824046920798,3.7525
0.659824046920798,3.755
0.513196480938398,3.7575
0.464320625610899,3.76
0.366568914955998,3.7625
0.415444770283502,3.765
0.562072336265902,3.7675
0.659824046920798,3.77
0.610948191593401,3.7725
0.610948191593401,3.775
0.317693059628499,3.7775
0.366568914955998,3.78
0.415444770283502,3.7825
0.513196480938398,3.785
0.610948191593401,3.7875
0.562072336265902,3.79
0.513196480938398,3.7925
0.366568914955998,3.795
0.366568914955998,3.7975
0.317693059628499,3.8
0.610948191593401,3.8025
0.659824046920798,3.805
0.562072336265902,3.8075
0.464320625610899,3.81
0.268817204301102,3.8125
0.317693059628499,3.815
0.366568914955998,3.8175
0.610948191593401,3.82
0.610948191593401,3.8225
0.659824046920798,3.825
0.366568914955998,3.8275
0.317693059628499,3.83
0.366568914955998,3.8325
0.464320625610899,3.835
0.610948191593401,3.8375
0.562072336265902,3.84
0.464320625610899,3.8425
0.219941348973598,3.845
0.366568914955998,3.8475
0.513196480938398,3.85
0.562072336265902,3.8525
0.659824046920798,3.855
0.610948191593401,3.8575
0.464320625610899,3.86
0.464320625610899,3.8625
0.415444770283502,3.865
0.562072336265902,3.8675
0.757575757575801,3.87
0.659824046920798,3.8725
0.562072336265902,3.875
0.415444770283502,3.8775
0.366568914955998,3.88
0.464320625610899,3.8825
0.513196480938398,3.885
0.708699902248302,3.8875
0.610948191593401,3.89
0.562072336265902,3.8925
0.366568914955998,3.895
0.317693059628499,3.8975
0.415444770283502,3.9
0.464320625610899,3.9025
0.659824046920798,3.905
0.610948191593401,3.9075
0.415444770283502,3.91
0.366568914955998,3.9125
0.366568914955998,3.915
0.366568914955998,3.9175
0.659824046920798,3.92
0.659824046920798,3.9225
0.562072336265902,3.925
0.366568914955998,3.9275
0.317693059628499,3.93
0.415444770283502,3.9325
0.610948191593401,3.935
0.562072336265902,3.9375
0.659824046920798,3.94
0.659824046920798,3.9425
0.513196480938398,3.945
0.366568914955998,3.9475
0.464320625610899,3.95
0.562072336265902,3.9525
0.562072336265902,3.955
0.610948191593401,3.9575
0.513196480938398,3.96
0.317693059628499,3.9625
0.366568914955998,3.965
0.464320625610899,3.9675
0.562072336265902,3.97
0.659824046920798,3.9725
0.562072336265902,3.975
0.415444770283502,3.9775
0.268817204301102,3.98
0.366568914955998,3.9825
0.317693059628499,3.985
0.610948191593401,3.9875
0.659824046920798,3.99
0.610948191593401,3.9925
0.317693059628499,3.995
0.366568914955998,3.9975
0.464320625610899,4
0.610948191593401,4.0025
0.708699902248302,4.005
0.659824046920798,4.0075
0.464320625610899,4.01
0.268817204301102,4.0125
0.366568914955998,4.015
0.415444770283502,4.0175
0.562072336265902,4.02
0.659824046920798,4.0225
0.562072336265902,4.025
0.464320625610899,4.0275
0.366568914955998,4.03
0.317693059628499,4.0325
0.415444770283502,4.035
0.464320625610899,4.0375
0.610948191593401,4.04
0.562072336265902,4.0425
0.513196480938398,4.045
0.268817204301102,4.0475
0.415444770283502,4.05
0.464320625610899,4.0525
0.708699902248302,4.055
0.708699902248302,4.0575
0.659824046920798,4.06
0.415444770283502,4.0625
0.366568914955998,4.065
0.464320625610899,4.0675
0.562072336265902,4.07
0.708699902248302,4.0725
0.659824046920798,4.075
0.562072336265902,4.0775
0.366568914955998,4.08
0.366568914955998,4.0825
0.464320625610899,4.085
0.610948191593401,4.0875
0.659824046920798,4.09
0.562072336265902,4.0925
0.562072336265902,4.095
0.317693059628499,4.0975
0.366568914955998,4.1
0.513196480938398,4.1025
0.659824046920798,4.105
0.659824046920798,4.1075
0.513196480938398,4.11
0.366568914955998,4.1125
0.122189638318702,4.115
0.0244379276636986,4.1175
-0.0733137829911978,4.12
-0.171065493646099,4.1225
-0.464320625610899,4.125
-0.708699902248302,4.1275
-1.2463343108504,4.13
-1.3929618768328,4.1325
-1.1485826001955,4.135
-0.659824046920798,4.1375
0.171065493646099,4.14
0.953079178885599,4.1425
1.9794721407625,4.145
2.761485826002,4.1475
3.2991202346041,4.15
3.5923753665689,4.1525
3.7878787878788,4.155
3.5434995112414,4.1575
3.0547409579668,4.16
2.5659824046921,4.1625
1.7350928641251,4.165
1.3440860215054,4.1675
0.953079178885599,4.17
0.855327468230702,4.1725
0.366568914955998,4.175
-0.122189638318702,4.1775
-0.317693059628499,4.18
-0.708699902248302,4.1825
-0.708699902248302,4.185
-0.610948191593401,4.1875
-0.366568914955998,4.19
-0.464320625610899,4.1925
-0.415444770283502,4.195
-0.659824046920798,4.1975
-0.464320625610899,4.2
-0.317693059628499,4.2025
-0.0733137829911978,4.205
0.122189638318702,4.2075
0.122189638318702,4.21
0.122189638318702,4.2125
0.0244379276636986,4.215
0.0733137829911978,4.2175
0.317693059628499,4.22
0.415444770283502,4.2225
0.464320625610899,4.225
0.415444770283502,4.2275
0.219941348973598,4.23
0.171065493646099,4.2325
0.268817204301102,4.235
0.317693059628499,4.2375
0.708699902248302,4.24
0.610948191593401,4.2425
0.610948191593401,4.245
0.317693059628499,4.2475
0.317693059628499,4.25
0.415444770283502,4.2525
0.610948191593401,4.255
0.610948191593401,4.2575
0.610948191593401,4.26
0.562072336265902,4.2625
0.366568914955998,4.265
0.366568914955998,4.2675
0.415444770283502,4.27
0.708699902248302,4.2725
0.659824046920798,4.275
0.610948191593401,4.2775
0.464320625610899,4.28
0.366568914955998,4.2825
0.366568914955998,4.285
0.464320625610899,4.2875
0.562072336265902,4.29
0.659824046920798,4.2925
0.562072336265902,4.295
0.513196480938398,4.2975
0.366568914955998,4.3
0.415444770283502,4.3025
0.562072336265902,4.305
0.562072336265902,4.3075
0.610948191593401,4.31
0.562072336265902,4.3125
0.268817204301102,4.315
0.366568914955998,4.3175
0.415444770283502,4.32
0.562072336265902,4.3225
0.659824046920798,4.325
0.610948191593401,4.3275
0.513196480938398,4.33
0.366568914955998,4.3325
0.366568914955998,4.335
0.464320625610899,4.3375
0.659824046920798,4.34
0.659824046920798,4.3425
0.562072336265902,4.345
0.366568914955998,4.3475
0.317693059628499,4.35
0.415444770283502,4.3525
0.464320625610899,4.355
0.562072336265902,4.3575
0.659824046920798,4.36
0.513196480938398,4.3625
0.268817204301102,4.365
0.366568914955998,4.3675
0.464320625610899,4.37
0.513196480938398,4.3725
0.855327468230702,4.375
0.659824046920798,4.3775
0.610948191593401,4.38
0.366568914955998,4.3825
0.464320625610899,4.385
0.562072336265902,4.3875
0.659824046920798,4.39
0.806451612903198,4.3925
0.708699902248302,4.395
0.610948191593401,4.3975
0.464320625610899,4.4
0.513196480938398,4.4025
0.513196480938398,4.405
0.708699902248302,4.4075
0.806451612903198,4.41
0.757575757575801,4.4125
0.610948191593401,4.415
0.513196480938398,4.4175
0.562072336265902,4.42
0.610948191593401,4.4225
0.806451612903198,4.425
0.757575757575801,4.4275
0.610948191593401,4.43
0.366568914955998,4.4325
0.464320625610899,4.435
0.513196480938398,4.4375
0.659824046920798,4.44
0.806451612903198,4.4425
0.659824046920798,4.445
0.610948191593401,4.4475
0.317693059628499,4.45
0.415444770283502,4.4525
0.464320625610899,4.455
0.562072336265902,4.4575
0.708699902248302,4.46
0.610948191593401,4.4625
0.513196480938398,4.465
0.317693059628499,4.4675
0.415444770283502,4.47
0.415444770283502,4.4725
0.708699902248302,4.475
0.708699902248302,4.4775
0.610948191593401,4.48
0.513196480938398,4.4825
0.317693059628499,4.485
0.415444770283502,4.4875
0.562072336265902,4.49
0.708699902248302,4.4925
0.610948191593401,4.495
0.610948191593401,4.4975
0.317693059628499,4.5
0.366568914955998,4.5025
0.464320625610899,4.505
0.610948191593401,4.5075
0.708699902248302,4.51
0.562072336265902,4.5125
0.415444770283502,4.515
0.268817204301102,4.5175
0.317693059628499,4.52
0.415444770283502,4.5225
0.659824046920798,4.525
0.610948191593401,4.5275
0.513196480938398,4.53
0.415444770283502,4.5325
0.268817204301102,4.535
0.366568914955998,4.5375
0.415444770283502,4.54
0.610948191593401,4.5425
0.610948191593401,4.545
0.513196480938398,4.5475
0.268817204301102,4.55
0.317693059628499,4.5525
0.415444770283502,4.555
0.562072336265902,4.5575
0.610948191593401,4.56
0.562072336265902,4.5625
0.513196480938398,4.565
0.415444770283502,4.5675
0.317693059628499,4.57
0.415444770283502,4.5725
0.562072336265902,4.575
0.610948191593401,4.5775
0.562072336265902,4.58
0.464320625610899,4.5825
0.366568914955998,4.585
0.366568914955998,4.5875
0.366568914955998,4.59
0.610948191593401,4.5925
0.659824046920798,4.595
0.562072336265902,4.5975
0.317693059628499,4.6
0.317693059628499,4.6025
0.415444770283502,4.605
0.464320625610899,4.6075
0.708699902248302,4.61
0.610948191593401,4.6125
0.562072336265902,4.615
0.268817204301102,4.6175
0.317693059628499,4.62
0.464320625610899,4.6225
0.562072336265902,4.625
0.708699902248302,4.6275
0.659824046920798,4.63
0.513196480938398,4.6325
0.366568914955998,4.635
0.415444770283502,4.6375
0.562072336265902,4.64
0.610948191593401,4.6425
0.659824046920798,4.645
0.610948191593401,4.6475
0.415444770283502,4.65
0.317693059628499,4.6525
0.415444770283502,4.655
0.464320625610899,4.6575
0.708699902248302,4.66
0.659824046920798,4.6625
0.562072336265902,4.665
0.415444770283502,4.6675
0.366568914955998,4.67
0.415444770283502,4.6725
0.513196480938398,4.675
0.757575757575801,4.6775
0.610948191593401,4.68
0.513196480938398,4.6825
0.366568914955998,4.685
0.366568914955998,4.6875
0.415444770283502,4.69
0.708699902248302,4.6925
0.659824046920798,4.695
0.610948191593401,4.6975
0.415444770283502,4.7
0.268817204301102,4.7025
0.415444770283502,4.705
0.513196480938398,4.7075
0.757575757575801,4.71
0.659824046920798,4.7125
0.610948191593401,4.715
0.464320625610899,4.7175
0.317693059628499,4.72
0.415444770283502,4.7225
0.562072336265902,4.725
0.757575757575801,4.7275
0.610948191593401,4.73
0.659824046920798,4.7325
0.415444770283502,4.735
0.366568914955998,4.7375
0.415444770283502,4.74
0.562072336265902,4.7425
0.708699902248302,4.745
0.610948191593401,4.7475
0.415444770283502,4.75
0.268817204301102,4.7525
0.317693059628499,4.755
0.317693059628499,4.7575
0.513196480938398,4.76
0.659824046920798,4.7625
0.562072336265902,4.765
0.513196480938398,4.7675
0.317693059628499,4.77
0.366568914955998,4.7725
0.464320625610899,4.775
0.659824046920798,4.7775
0.610948191593401,4.78
0.464320625610899,4.7825
0.464320625610899,4.785
0.268817204301102,4.7875
0.366568914955998,4.79
0.464320625610899,4.7925
0.659824046920798,4.795
0.610948191593401,4.7975
0.464320625610899,4.8
0.513196480938398,4.8025
0.366568914955998,4.805
0.464320625610899,4.8075
0.659824046920798,4.81
0.708699902248302,4.8125
0.659824046920798,4.815
0.610948191593401,4.8175
0.366568914955998,4.82
0.464320625610899,4.8225
0.464320625610899,4.825
0.708699902248302,4.8275
0.659824046920798,4.83
0.610948191593401,4.8325
0.415444770283502,4.835
0.366568914955998,4.8375
0.415444770283502,4.84
0.464320625610899,4.8425
0.708699902248302,4.845
0.659824046920798,4.8475
0.610948191593401,4.85
0.415444770283502,4.8525
0.366568914955998,4.855
0.464320625610899,4.8575
0.610948191593401,4.86
0.610948191593401,4.8625
0.513196480938398,4.865
0.268817204301102,4.8675
-0.0244379276636986,4.87
-0.122189638318702,4.8725
-0.366568914955998,4.875
-0.366568914955998,4.8775
-0.562072336265902,4.88
-0.953079178885599,4.8825
-1.2952101661779,4.885
-1.4418377321603,4.8875
-1.0508308895406,4.89
-0.513196480938398,4.8925
0.317693059628499,4.895
1.2463343108504,4.8975
2.2238514173998,4.9
2.9081133919844,4.9025
3.2502443792766,4.905
3.4457478005865,4.9075
3.396871945259,4.91
3.4457478005865,4.9125
2.8103616813294,4.915
2.0772238514174,4.9175
1.4418377321603,4.92
1.0019550342131,4.9225
0.659824046920798,4.925
0.513196480938398,4.9275
0.268817204301102,4.93
-0.0733137829911978,4.9325
-0.366568914955998,4.935
-0.659824046920798,4.9375
-0.562072336265902,4.94
-0.513196480938398,4.9425
-0.219941348973598,4.945
-0.171065493646099,4.9475
-0.219941348973598,4.95
-0.268817204301102,4.9525
-0.317693059628499,4.955
-0.122189638318702,4.9575
-0.0733137829911978,4.96
0.268817204301102,4.9625
0.268817204301102,4.965
0.317693059628499,4.9675
-0.0244379276636986,4.97
0.122189638318702,4.9725
0.219941348973598,4.975
0.415444770283502,4.9775
0.513196480938398,4.98
0.513196480938398,4.9825
0.415444770283502,4.985
0.219941348973598,4.9875
0.317693059628499,4.99
0.415444770283502,4.9925
0.659824046920798,4.995
0.610948191593401,4.9975
0.513196480938398,5
0.415444770283502,5.0025
0.366568914955998,5.005
0.366568914955998,5.0075
0.464320625610899,5.01
0.610948191593401,5.0125
0.659824046920798,5.015
0.562072336265902,5.0175
0.366568914955998,5.02
0.366568914955998,5.0225
0.415444770283502,5.025
0.610948191593401,5.0275
0.659824046920798,5.03
0.659824046920798,5.0325
0.464320625610899,5.035
0.317693059628499,5.0375
0.317693059628499,5.04
0.415444770283502,5.0425
0.610948191593401,5.045
0.659824046920798,5.0475
0.610948191593401,5.05
0.513196480938398,5.0525
0.268817204301102,5.055
0.366568914955998,5.0575
0.317693059628499,5.06
0.610948191593401,5.0625
0.659824046920798,5.065
0.562072336265902,5.0675
0.366568914955998,5.07
0.366568914955998,5.0725
0.415444770283502,5.075
0.415444770283502,5.0775
0.708699902248302,5.08
0.659824046920798,5.0825
0.610948191593401,5.085
0.415444770283502,5.0875
0.317693059628499,5.09
0.415444770283502,5.0925
0.513196480938398,5.095
0.757575757575801,5.0975
0.610948191593401,5.1
0.562072336265902,5.1025
0.464320625610899,5.105
0.366568914955998,5.1075
0.464320625610899,5.11
0.659824046920798,5.1125
0.708699902248302,5.115
0.610948191593401,5.1175
0.513196480938398,5.12
0.513196480938398,5.1225
0.464320625610899,5.125
0.562072336265902,5.1275
0.610948191593401,5.13
0.708699902248302,5.1325
0.659824046920798,5.135
0.513196480938398,5.1375
0.415444770283502,5.14
0.513196480938398,5.1425
0.659824046920798,5.145
0.708699902248302,5.1475
0.757575757575801,5.15
0.659824046920798,5.1525
0.513196480938398,5.155
0.513196480938398,5.1575
0.610948191593401,5.16
0.610948191593401,5.1625
0.806451612903198,5.165
0.757575757575801,5.1675
0.562072336265902,5.17
0.464320625610899,5.1725
0.464320625610899,5.175
0.562072336265902,5.1775
0.610948191593401,5.18
0.708699902248302,5.1825
0.610948191593401,5.185
0.513196480938398,5.1875
0.366568914955998,5.19
0.415444770283502,5.1925
0.562072336265902,5.195
0.610948191593401,5.1975
0.659824046920798,5.2
0.659824046920798,5.2025
0.268817204301102,5.205
0.366568914955998,5.2075
0.415444770283502,5.21
0.562072336265902,5.2125
0.757575757575801,5.215
0.610948191593401,5.2175
0.562072336265902,5.22
0.464320625610899,5.2225
0.366568914955998,5.225
0.415444770283502,5.2275
0.513196480938398,5.23
0.708699902248302,5.2325
0.610948191593401,5.235
0.513196480938398,5.2375
0.268817204301102,5.24
0.415444770283502,5.2425
0.366568914955998,5.245
0.562072336265902,5.2475
0.659824046920798,5.25
0.610948191593401,5.2525
0.366568914955998,5.255
0.317693059628499,5.2575
0.415444770283502,5.26
0.513196480938398,5.2625
0.562072336265902,5.265
0.659824046920798,5.2675
0.610948191593401,5.27
0.464320625610899,5.2725
0.317693059628499,5.275
0.415444770283502,5.2775
0.513196480938398,5.28
0.659824046920798,5.2825
0.610948191593401,5.285
0.513196480938398,5.2875
0.366568914955998,5.29
0.317693059628499,5.2925
0.415444770283502,5.295
0.610948191593401,5.2975
0.610948191593401,5.3
0.513196480938398,5.3025
0.464320625610899,5.305
0.366568914955998,5.3075
0.366568914955998,5.31
0.562072336265902,5.3125
0.562072336265902,5.315
0.610948191593401,5.3175
0.513196480938398,5.32
0.268817204301102,5.3225
0.317693059628499,5.325
0.415444770283502,5.3275
0.513196480938398,5.33
0.708699902248302,5.3325
0.610948191593401,5.335
0.610948191593401,5.3375
0.219941348973598,5.34
0.317693059628499,5.3425
0.415444770283502,5.345
0.659824046920798,5.3475
0.659824046920798,5.35
0.610948191593401,5.3525
0.513196480938398,5.355
0.317693059628499,5.3575
0.366568914955998,5.36
0.513196480938398,5.3625
0.659824046920798,5.365
0.659824046920798,5.3675
0.562072336265902,5.37
0.415444770283502,5.3725
0.317693059628499,5.375
0.415444770283502,5.3775
0.513196480938398,5.38
0.610948191593401,5.3825
0.659824046920798,5.385
0.513196480938398,5.3875
0.268817204301102,5.39
0.366568914955998,5.3925
0.415444770283502,5.395
0.513196480938398,5.3975
0.659824046920798,5.4
0.659824046920798,5.4025
0.415444770283502,5.405
0.415444770283502,5.4075
0.415444770283502,5.41
0.317693059628499,5.4125
0.562072336265902,5.415
0.708699902248302,5.4175
0.610948191593401,5.42
0.562072336265902,5.4225
0.366568914955998,5.425
0.415444770283502,5.4275
0.513196480938398,5.43
0.659824046920798,5.4325
0.659824046920798,5.435
0.562072336265902,5.4375
0.464320625610899,5.44
0.317693059628499,5.4425
0.415444770283502,5.445
0.464320625610899,5.4475
0.806451612903198,5.45
0.610948191593401,5.4525
0.513196480938398,5.455
0.366568914955998,5.4575
0.366568914955998,5.46
0.464320625610899,5.4625
0.659824046920798,5.465
0.659824046920798,5.4675
0.610948191593401,5.47
0.464320625610899,5.4725
0.268817204301102,5.475
0.366568914955998,5.4775
0.366568914955998,5.48
0.659824046920798,5.4825
0.708699902248302,5.485
0.562072336265902,5.4875
0.366568914955998,5.49
0.317693059628499,5.4925
0.415444770283502,5.495
0.464320625610899,5.4975
0.610948191593401,5.5
0.659824046920798,5.5025
0.610948191593401,5.505
0.366568914955998,5.5075
0.366568914955998,5.51
0.415444770283502,5.5125
0.659824046920798,5.515
0.806451612903198,5.5175
0.610948191593401,5.52
0.562072336265902,5.5225
0.366568914955998,5.525
0.366568914955998,5.5275
0.366568914955998,5.53
0.513196480938398,5.5325
0.659824046920798,5.535
0.610948191593401,5.5375
0.464320625610899,5.54
0.219941348973598,5.5425
0.415444770283502,5.545
0.464320625610899,5.5475
0.513196480938398,5.55
0.659824046920798,5.5525
0.562072336265902,5.555
0.317693059628499,5.5575
0.366568914955998,5.56
0.415444770283502,5.5625
0.464320625610899,5.565
0.562072336265902,5.5675
0.659824046920798,5.57
0.610948191593401,5.5725
0.366568914955998,5.575
0.317693059628499,5.5775
0.464320625610899,5.58
0.610948191593401,5.5825
0.659824046920798,5.585
0.610948191593401,5.5875
0.415444770283502,5.59
0.366568914955998,5.5925
0.317693059628499,5.595
0.464320625610899,5.5975
0.562072336265902,5.6
0.610948191593401,5.6025
0.562072336265902,5.605
0.366568914955998,5.6075
0.317693059628499,5.61
0.415444770283502,5.6125
0.464320625610899,5.615
0.708699902248302,5.6175
0.659824046920798,5.62
0.610948191593401,5.6225
0.366568914955998,5.625
0.366568914955998,5.6275
0.464320625610899,5.63
0.610948191593401,5.6325
0.659824046920798,5.635
0.659824046920798,5.6375
0.464320625610899,5.64
0.366568914955998,5.6425
0.366568914955998,5.645
0.464320625610899,5.6475
0.708699902248302,5.65
0.659824046920798,5.6525
0.659824046920798,5.655
0.464320625610899,5.6575
0.415444770283502,5.66
0.366568914955998,5.6625
0.415444770283502,5.665
0.562072336265902,5.6675
0.659824046920798,5.67
0.562072336265902,5.6725
0.415444770283502,5.675
0.268817204301102,5.6775
0.317693059628499,5.68
0.366568914955998,5.6825
0.415444770283502,5.685
0.0733137829911978,5.6875
-0.317693059628499,5.69
-0.757575757575801,5.6925
-1.0019550342131,5.695
-1.197458455523,5.6975
-1.197458455523,5.7
-0.953079178885599,5.7025
-0.708699902248302,5.705
-0.317693059628499,5.7075
0.317693059628499,5.71
1.4418377321603,5.7125
2.5171065493646,5.715
3.2013685239492,5.7175
3.5434995112414,5.72
3.494623655914,5.7225
3.2991202346041,5.725
2.761485826002,5.7275
2.2727272727273,5.73
1.8328445747801,5.7325
1.4418377321603,5.735
1.099706744868,5.7375
0.610948191593401,5.74
0.219941348973598,5.7425
-0.171065493646099,5.745
-0.268817204301102,5.7475
-0.268817204301102,5.75
-0.317693059628499,5.7525
-0.219941348973598,5.755
-0.268817204301102,5.7575
-0.415444770283502,5.76
-0.366568914955998,5.7625
-0.219941348973598,5.765
0.0244379276636986,5.7675
0.219941348973598,5.77
0.171065493646099,5.7725
0.0733137829911978,5.775
0.0733137829911978,5.7775
0.0733137829911978,5.78
0.122189638318702,5.7825
0.415444770283502,5.785
0.464320625610899,5.7875
0.415444770283502,5.79
0.317693059628499,5.7925
0.171065493646099,5.795
0.268817204301102,5.7975
0.415444770283502,5.8
0.464320625610899,5.8025
0.562072336265902,5.805
0.513196480938398,5.8075
0.268817204301102,5.81
0.268817204301102,5.8125
0.366568914955998,5.815
0.415444770283502,5.8175
0.659824046920798,5.82
0.610948191593401,5.8225
0.415444770283502,5.825
0.268817204301102,5.8275
0.366568914955998,5.83
0.366568914955998,5.8325
0.562072336265902,5.835
0.659824046920798,5.8375
0.562072336265902,5.84
0.562072336265902,5.8425
0.268817204301102,5.845
0.415444770283502,5.8475
0.562072336265902,5.85
0.659824046920798,5.8525
0.659824046920798,5.855
0.610948191593401,5.8575
0.317693059628499,5.86
0.317693059628499,5.8625
0.415444770283502,5.865
0.513196480938398,5.8675
0.659824046920798,5.87
0.610948191593401,5.8725
0.562072336265902,5.875
0.317693059628499,5.8775
0.366568914955998,5.88
0.415444770283502,5.8825
0.610948191593401,5.885
0.659824046920798,5.8875
0.610948191593401,5.89
0.415444770283502,5.8925
0.268817204301102,5.895
0.366568914955998,5.8975
0.366568914955998,5.9
0.513196480938398,5.9025
0.659824046920798,5.905
0.610948191593401,5.9075
0.464320625610899,5.91
0.366568914955998,5.9125
0.415444770283502,5.915
0.415444770283502,5.9175
0.659824046920798,5.92
0.659824046920798,5.9225
0.659824046920798,5.925
0.317693059628499,5.9275
0.366568914955998,5.93
0.464320625610899,5.9325
0.464320625610899,5.935
0.659824046920798,5.9375
0.659824046920798,5.94
0.513196480938398,5.9425
0.366568914955998,5.945
0.415444770283502,5.9475
0.513196480938398,5.95
0.708699902248302,5.9525
0.757575757575801,5.955
0.659824046920798,5.9575
0.659824046920798,5.96
0.562072336265902,5.9625
0.464320625610899,5.965
0.562072336265902,5.9675
0.806451612903198,5.97
0.806451612903198,5.9725
0.708699902248302,5.975
0.513196480938398,5.9775
0.513196480938398,5.98
0.562072336265902,5.9825
0.659824046920798,5.985
0.806451612903198,5.9875
0.757575757575801,5.99
0.757575757575801,5.9925
0.366568914955998,5.995
0.415444770283502,5.9975
0.464320625610899,6
0.562072336265902,6.0025
0.659824046920798,6.005
0.610948191593401,6.0075
0.610948191593401,6.01
0.415444770283502,6.0125
0.366568914955998,6.015
0.366568914955998,6.0175
0.610948191593401,6.02
0.659824046920798,6.0225
0.562072336265902,6.025
0.464320625610899,6.0275
0.317693059628499,6.03
0.415444770283502,6.0325
0.562072336265902,6.035
0.562072336265902,6.0375
0.610948191593401,6.04
0.610948191593401,6.0425
0.366568914955998,6.045
0.317693059628499,6.0475
0.415444770283502,6.05
0.562072336265902,6.0525
0.708699902248302,6.055
0.659824046920798,6.0575
0.659824046920798,6.06
0.366568914955998,6.0625
0.366568914955998,6.065
0.464320625610899,6.0675
0.659824046920798,6.07
0.708699902248302,6.0725
0.610948191593401,6.075
0.610948191593401,6.0775
0.464320625610899,6.08
0.415444770283502,6.0825
0.415444770283502,6.085
0.708699902248302,6.0875
0.659824046920798,6.09
0.562072336265902,6.0925
0.366568914955998,6.095
0.317693059628499,6.0975
0.415444770283502,6.1
0.562072336265902,6.1025
0.708699902248302,6.105
0.610948191593401,6.1075
0.464320625610899,6.11
0.268817204301102,6.1125
0.317693059628499,6.115
0.415444770283502,6.1175
0.513196480938398,6.12
0.659824046920798,6.1225
0.562072336265902,6.125
0.562072336265902,6.1275
0.268817204301102,6.13
0.366568914955998,6.1325
0.317693059628499,6.135
0.464320625610899,6.1375
0.659824046920798,6.14
0.562072336265902,6.1425
0.366568914955998,6.145
0.219941348973598,6.1475
0.366568914955998,6.15
0.366568914955998,6.1525
0.610948191593401,6.155
0.610948191593401,6.1575
0.513196480938398,6.16
0.268817204301102,6.1625
0.317693059628499,6.165
0.366568914955998,6.1675
0.513196480938398,6.17
0.513196480938398,6.1725
0.610948191593401,6.175
0.464320625610899,6.1775
0.366568914955998,6.18
0.317693059628499,6.1825
0.464320625610899,6.185
0.464320625610899,6.1875
0.659824046920798,6.19
0.610948191593401,6.1925
0.610948191593401,6.195
0.219941348973598,6.1975
0.415444770283502,6.2
0.415444770283502,6.2025
0.562072336265902,6.205
0.659824046920798,6.2075
0.562072336265902,6.21
0.415444770283502,6.2125
0.366568914955998,6.215
0.415444770283502,6.2175
0.513196480938398,6.22
0.610948191593401,6.2225
0.659824046920798,6.225
0.562072336265902,6.2275
0.317693059628499,6.23
0.366568914955998,6.2325
0.415444770283502,6.235
0.464320625610899,6.2375
0.659824046920798,6.24
0.610948191593401,6.2425
0.513196480938398,6.245
0.317693059628499,6.2475
0.366568914955998,6.25
0.513196480938398,6.2525
0.562072336265902,6.255
0.708699902248302,6.2575
0.610948191593401,6.26
0.415444770283502,6.2625
0.415444770283502,6.265
0.366568914955998,6.2675
0.464320625610899,6.27
0.708699902248302,6.2725
0.659824046920798,6.275
0.610948191593401,6.2775
0.415444770283502,6.28
0.317693059628499,6.2825
0.415444770283502,6.285
0.513196480938398,6.2875
0.610948191593401,6.29
0.610948191593401,6.2925
0.464320625610899,6.295
0.366568914955998,6.2975
0.317693059628499,6.3
0.415444770283502,6.3025
0.562072336265902,6.305
0.659824046920798,6.3075
0.610948191593401,6.31
0.513196480938398,6.3125
0.268817204301102,6.315
0.415444770283502,6.3175
0.562072336265902,6.32
0.562072336265902,6.3225
0.708699902248302,6.325
0.610948191593401,6.3275
0.464320625610899,6.33
0.317693059628499,6.3325
0.415444770283502,6.335
0.513196480938398,6.3375
0.708699902248302,6.34
0.659824046920798,6.3425
0.659824046920798,6.345
0.415444770283502,6.3475
0.317693059628499,6.35
0.415444770283502,6.3525
0.562072336265902,6.355
0.855327468230702,6.3575
0.610948191593401,6.36
0.513196480938398,6.3625
0.268817204301102,6.365
0.366568914955998,6.3675
0.464320625610899,6.37
0.562072336265902,6.3725
0.659824046920798,6.375
0.610948191593401,6.3775
0.464320625610899,6.38
0.268817204301102,6.3825
0.415444770283502,6.385
0.415444770283502,6.3875
0.562072336265902,6.39
0.659824046920798,6.3925
0.562072336265902,6.395
0.366568914955998,6.3975
0.317693059628499,6.4
0.415444770283502,6.4025
0.562072336265902,6.405
0.757575757575801,6.4075
0.659824046920798,6.41
0.464320625610899,6.4125
0.415444770283502,6.415
0.317693059628499,6.4175
0.415444770283502,6.42
0.610948191593401,6.4225
0.659824046920798,6.425
0.610948191593401,6.4275
0.464320625610899,6.43
0.366568914955998,6.4325
0.366568914955998,6.435
0.464320625610899,6.4375
0.610948191593401,6.44
0.708699902248302,6.4425
0.610948191593401,6.445
0.366568914955998,6.4475
0.366568914955998,6.45
0.415444770283502,6.4525
0.415444770283502,6.455
0.708699902248302,6.4575
0.659824046920798,6.46
0.513196480938398,6.4625
0.268817204301102,6.465
0.317693059628499,6.4675
0.366568914955998,6.47
0.464320625610899,6.4725
0.659824046920798,6.475
0.562072336265902,6.4775
0.415444770283502,6.48
0.219941348973598,6.4825
0.366568914955998,6.485
0.464320625610899,6.4875
0.562072336265902,6.49
0.708699902248302,6.4925
0.610948191593401,6.495
0.562072336265902,6.4975
0.317693059628499,6.5
0.415444770283502,6.5025
0.415444770283502,6.505
0.806451612903198,6.5075
0.659824046920798,6.51
0.610948191593401,6.5125
0.562072336265902,6.515
0.366568914955998,6.5175
0.415444770283502,6.52
0.464320625610899,6.5225
0.708699902248302,6.525
0.659824046920798,6.5275
0.464320625610899,6.53
0.317693059628499,6.5325
0.317693059628499,6.535
0.464320625610899,6.5375
0.513196480938398,6.54
0.659824046920798,6.5425
0.610948191593401,6.545
0.415444770283502,6.5475
0.219941348973598,6.55
0.219941348973598,6.5525
0.268817204301102,6.555
0.122189638318702,6.5575
0.0244379276636986,6.56
-0.317693059628499,6.5625
-0.757575757575801,6.565
-1.197458455523,6.5675
-1.2952101661779,6.57
-1.2952101661779,6.5725
-0.757575757575801,6.575
-0.415444770283502,6.5775
0.0733137829911978,6.58
0.806451612903198,6.5825
1.8817204301075,6.585
2.761485826002,6.5875
3.3479960899316,6.59
3.8367546432063,6.5925
3.5923753665689,6.595
3.2502443792766,6.5975
2.5659824046921,6.6
2.1260997067449,6.6025
1.6862170087977,6.605
1.3440860215054,6.6075
1.0019550342131,6.61
0.562072336265902,6.6125
0.122189638318702,6.615
-0.317693059628499,6.6175
-0.464320625610899,6.62
-0.513196480938398,6.6225
-0.268817204301102,6.625
-0.317693059628499,6.6275
-0.366568914955998,6.63
-0.464320625610899,6.6325
-0.464320625610899,6.635
-0.317693059628499,6.6375
-0.171065493646099,6.64
0.0244379276636986,6.6425
0.122189638318702,6.645
0.171065493646099,6.6475
0.0244379276636986,6.65
0.0244379276636986,6.6525
0.171065493646099,6.655
0.268817204301102,6.6575
0.513196480938398,6.66
0.464320625610899,6.6625
0.317693059628499,6.665
0.219941348973598,6.6675
0.219941348973598,6.67
0.317693059628499,6.6725
0.464320625610899,6.675
0.610948191593401,6.6775
0.513196480938398,6.68
0.366568914955998,6.6825
0.268817204301102,6.685
0.317693059628499,6.6875
0.464320625610899,6.69
0.708699902248302,6.6925
0.610948191593401,6.695
0.513196480938398,6.6975
0.268817204301102,6.7
0.317693059628499,6.7025
0.415444770283502,6.705
0.610948191593401,6.7075
0.659824046920798,6.71
0.610948191593401,6.7125
0.513196480938398,6.715
0.513196480938398,6.7175
0.366568914955998,6.72
0.464320625610899,6.7225
0.610948191593401,6.725
0.708699902248302,6.7275
0.610948191593401,6.73
0.464320625610899,6.7325
0.268817204301102,6.735
0.366568914955998,6.7375
0.366568914955998,6.74
0.562072336265902,6.7425
0.610948191593401,6.745
0.562072336265902,6.7475
0.464320625610899,6.75
0.317693059628499,6.7525
0.415444770283502,6.755
0.513196480938398,6.7575
0.562072336265902,6.76
0.610948191593401,6.7625
0.610948191593401,6.765
0.415444770283502,6.7675
0.317693059628499,6.77
0.415444770283502,6.7725
0.464320625610899,6.775
0.513196480938398,6.7775
0.610948191593401,6.78
0.562072336265902,6.7825
0.317693059628499,6.785
0.366568914955998,6.7875
0.464320625610899,6.79
0.562072336265902,6.7925
0.659824046920798,6.795
0.610948191593401,6.7975
0.415444770283502,6.8
0.366568914955998,6.8025
0.415444770283502,6.805
0.464320625610899,6.8075
0.708699902248302,6.81
0.708699902248302,6.8125
0.610948191593401,6.815
0.464320625610899,6.8175
0.415444770283502,6.82
0.464320625610899,6.8225
0.610948191593401,6.825
0.708699902248302,6.8275
0.708699902248302,6.83
0.806451612903198,6.8325
0.610948191593401,6.835
0.464320625610899,6.8375
0.513196480938398,6.84
0.757575757575801,6.8425
0.806451612903198,6.845
0.757575757575801,6.8475
0.659824046920798,6.85
0.562072336265902,6.8525
0.562072336265902,6.855
0.610948191593401,6.8575
0.904203323558201,6.86
0.757575757575801,6.8625
0.708699902248302,6.865
0.659824046920798,6.8675
0.415444770283502,6.87
0.464320625610899,6.8725
0.415444770283502,6.875
0.610948191593401,6.8775
0.659824046920798,6.88
0.708699902248302,6.8825
0.415444770283502,6.885
0.317693059628499,6.8875
0.415444770283502,6.89
0.464320625610899,6.8925
0.562072336265902,6.895
0.610948191593401,6.8975
0.415444770283502,6.9
0.268817204301102,6.9025
0.366568914955998,6.905
0.415444770283502,6.9075
0.757575757575801,6.91
0.708699902248302,6.9125
0.610948191593401,6.915
0.513196480938398,6.9175
0.415444770283502,6.92
0.415444770283502,6.9225
0.513196480938398,6.925
0.610948191593401,6.9275
0.659824046920798,6.93
0.562072336265902,6.9325
0.415444770283502,6.935
0.366568914955998,6.9375
0.464320625610899,6.94
0.513196480938398,6.9425
0.610948191593401,6.945
0.659824046920798,6.9475
0.708699902248302,6.95
0.268817204301102,6.9525
0.317693059628499,6.955
0.415444770283502,6.9575
0.562072336265902,6.96
0.610948191593401,6.9625
0.562072336265902,6.965
0.415444770283502,6.9675
0.317693059628499,6.97
0.366568914955998,6.9725
0.415444770283502,6.975
0.659824046920798,6.9775
0.610948191593401,6.98
0.562072336265902,6.9825
0.415444770283502,6.985
0.464320625610899,6.9875
0.366568914955998,6.99
0.562072336265902,6.9925
0.757575757575801,6.995
0.659824046920798,6.9975
0.513196480938398,7
0.317693059628499,7.0025
0.268817204301102,7.005
0.415444770283502,7.0075
0.415444770283502,7.01
0.708699902248302,7.0125
0.610948191593401,7.015
0.513196480938398,7.0175
0.219941348973598,7.02
0.317693059628499,7.0225
0.415444770283502,7.025
0.464320625610899,7.0275
0.659824046920798,7.03
0.610948191593401,7.0325
0.415444770283502,7.035
0.219941348973598,7.0375
0.366568914955998,7.04
0.464320625610899,7.0425
0.610948191593401,7.045
0.659824046920798,7.0475
0.562072336265902,7.05
0.415444770283502,7.0525
0.317693059628499,7.055
0.415444770283502,7.0575
0.464320625610899,7.06
0.562072336265902,7.0625
0.659824046920798,7.065
0.610948191593401,7.0675
0.317693059628499,7.07
0.366568914955998,7.0725
0.464320625610899,7.075
0.610948191593401,7.0775
0.708699902248302,7.08
0.659824046920798,7.0825
0.610948191593401,7.085
0.317693059628499,7.0875
0.366568914955998,7.09
0.513196480938398,7.0925
0.610948191593401,7.095
0.708699902248302,7.0975
0.610948191593401,7.1
0.415444770283502,7.1025
0.366568914955998,7.105
0.415444770283502,7.1075
0.464320625610899,7.11
0.659824046920798,7.1125
0.659824046920798,7.115
0.562072336265902,7.1175
0.317693059628499,7.12
0.366568914955998,7.1225
0.415444770283502,7.125
0.610948191593401,7.1275
0.806451612903198,7.13
0.610948191593401,7.1325
0.562072336265902,7.135
0.366568914955998,7.1375
0.317693059628499,7.14
0.415444770283502,7.1425
0.610948191593401,7.145
0.610948191593401,7.1475
0.562072336265902,7.15
0.464320625610899,7.1525
0.268817204301102,7.155
0.366568914955998,7.1575
0.562072336265902,7.16
0.659824046920798,7.1625
0.659824046920798,7.165
0.562072336265902,7.1675
0.464320625610899,7.17
0.317693059628499,7.1725
0.415444770283502,7.175
0.464320625610899,7.1775
0.610948191593401,7.18
0.659824046920798,7.1825
0.562072336265902,7.185
0.366568914955998,7.1875
0.366568914955998,7.19
0.464320625610899,7.1925
0.562072336265902,7.195
0.659824046920798,7.1975
0.659824046920798,7.2
0.513196480938398,7.2025
0.366568914955998,7.205
0.366568914955998,7.2075
0.464320625610899,7.21
0.562072336265902,7.2125
0.659824046920798,7.215
0.610948191593401,7.2175
0.464320625610899,7.22
0.366568914955998,7.2225
0.366568914955998,7.225
0.562072336265902,7.2275
0.562072336265902,7.23
0.659824046920798,7.2325
0.562072336265902,7.235
0.415444770283502,7.2375
0.366568914955998,7.24
0.415444770283502,7.2425
0.415444770283502,7.245
0.757575757575801,7.2475
0.610948191593401,7.25
0.610948191593401,7.2525
0.317693059628499,7.255
0.366568914955998,7.2575
0.464320625610899,7.26
0.513196480938398,7.2625
0.659824046920798,7.265
0.610948191593401,7.2675
0.659824046920798,7.27
0.415444770283502,7.2725
0.366568914955998,7.275
0.366568914955998,7.2775
0.610948191593401,7.28
0.659824046920798,7.2825
0.562072336265902,7.285
0.415444770283502,7.2875
0.317693059628499,7.29
0.415444770283502,7.2925
0.610948191593401,7.295
0.659824046920798,7.2975
0.659824046920798,7.3
0.562072336265902,7.3025
0.464320625610899,7.305
0.268817204301102,7.3075
0.366568914955998,7.31
0.464320625610899,7.3125
0.708699902248302,7.315
0.562072336265902,7.3175
0.464320625610899,7.32
0.366568914955998,7.3225
0.317693059628499,7.325
0.415444770283502,7.3275
0.464320625610899,7.33
0.708699902248302,7.3325
0.610948191593401,7.335
0.513196480938398,7.3375
0.317693059628499,7.34
0.415444770283502,7.3425
0.464320625610899,7.345
0.610948191593401,7.3475
0.708699902248302,7.35
0.610948191593401,7.3525
0.562072336265902,7.355
0.366568914955998,7.3575
0.415444770283502,7.36
0.464320625610899,7.3625
0.562072336265902,7.365
0.610948191593401,7.3675
0.513196480938398,7.37
0.366568914955998,7.3725
0.366568914955998,7.375
0.464320625610899,7.3775
0.513196480938398,7.38
0.708699902248302,7.3825
0.610948191593401,7.385
0.415444770283502,7.3875
0.268817204301102,7.39
0.268817204301102,7.3925
0.219941348973598,7.395
0.171065493646099,7.3975
0.122189638318702,7.4
-0.219941348973598,7.4025
-0.659824046920798,7.405
-1.0508308895406,7.4075
-1.197458455523,7.41
-1.2952101661779,7.4125
-0.904203323558201,7.415
-0.562072336265902,7.4175
0.0733137829911978,7.42
0.562072336265902,7.4225
1.4907135874878,7.425
2.5659824046921,7.4275
3.2502443792766,7.43
3.7390029325513,7.4325
3.7390029325513,7.435
3.3479960899316,7.4375
2.9081133919844,7.44
2.3704789833822,7.4425
1.930596285435,7.445
1.5395894428152,7.4475
1.197458455523,7.45
0.708699902248302,7.4525
0.317693059628499,7.455
-0.268817204301102,7.4575
-0.366568914955998,7.46
-0.415444770283502,7.4625
-0.464320625610899,7.465
-0.415444770283502,7.4675
-0.513196480938398,7.47
-0.562072336265902,7.4725
-0.610948191593401,7.475
-0.464320625610899,7.4775
-0.219941348973598,7.48
-0.122189638318702,7.4825
0.0733137829911978,7.485
-0.0733137829911978,7.4875
-0.0733137829911978,7.49
-0.0733137829911978,7.4925
0.0733137829911978,7.495
0.219941348973598,7.4975
0.415444770283502,7.5
0.415444770283502,7.5025
0.268817204301102,7.505
0.122189638318702,7.5075
0.268817204301102,7.51
0.268817204301102,7.5125
0.562072336265902,7.515
0.610948191593401,7.5175
0.562072336265902,7.52
0.415444770283502,7.5225
0.366568914955998,7.525
0.366568914955998,7.5275
0.366568914955998,7.53
0.610948191593401,7.5325
0.610948191593401,7.535
0.562072336265902,7.5375
0.464320625610899,7.54
0.317693059628499,7.5425
0.415444770283502,7.545
0.513196480938398,7.5475
0.659824046920798,7.55
0.610948191593401,7.5525
0.562072336265902,7.555
0.317693059628499,7.5575
0.366568914955998,7.56
0.415444770283502,7.5625
0.513196480938398,7.565
0.659824046920798,7.5675
0.562072336265902,7.57
0.415444770283502,7.5725
0.415444770283502,7.575
0.366568914955998,7.5775
0.366568914955998,7.58
0.610948191593401,7.5825
0.659824046920798,7.585
0.562072336265902,7.5875
0.464320625610899,7.59
0.317693059628499,7.5925
0.366568914955998,7.595
0.562072336265902,7.5975
0.659824046920798,7.6
0.659824046920798,7.6025
0.562072336265902,7.605
0.317693059628499,7.6075
0.317693059628499,7.61
0.415444770283502,7.6125
0.513196480938398,7.615
0.562072336265902,7.6175
0.610948191593401,7.62
0.415444770283502,7.6225
0.317693059628499,7.625
0.366568914955998,7.6275
0.415444770283502,7.63
0.562072336265902,7.6325
0.610948191593401,7.635
0.562072336265902,7.6375
0.366568914955998,7.64
0.317693059628499,7.6425
0.366568914955998,7.645
0.562072336265902,7.6475
0.757575757575801,7.65
0.659824046920798,7.6525
0.610948191593401,7.655
0.464320625610899,7.6575
0.366568914955998,7.66
0.464320625610899,7.6625
0.610948191593401,7.665
0.806451612903198,7.6675
0.757575757575801,7.67
0.708699902248302,7.6725
0.562072336265902,7.675
0.464320625610899,7.6775
0.562072336265902,7.68
0.659824046920798,7.6825
0.806451612903198,7.685
0.757575757575801,7.6875
0.757575757575801,7.69
0.464320625610899,7.6925
0.562072336265902,7.695
0.562072336265902,7.6975
0.757575757575801,7.7
0.806451612903198,7.7025
0.708699902248302,7.705
0.659824046920798,7.7075
0.366568914955998,7.71
0.464320625610899,7.7125
0.513196480938398,7.715
0.757575757575801,7.7175
0.708699902248302,7.72
0.562072336265902,7.7225
0.415444770283502,7.725
0.366568914955998,7.7275
0.464320625610899,7.73
0.513196480938398,7.7325
0.610948191593401,7.735
0.659824046920798,7.7375
0.464320625610899,7.74
0.366568914955998,7.7425
0.415444770283502,7.745
0.464320625610899,7.7475
0.513196480938398,7.75
0.708699902248302,7.7525
0.610948191593401,7.755
0.415444770283502,7.7575
0.415444770283502,7.76
0.415444770283502,7.7625
0.513196480938398,7.765
0.610948191593401,7.7675
0.708699902248302,7.77
0.610948191593401,7.7725
0.464320625610899,7.775
0.366568914955998,7.7775
0.415444770283502,7.78
0.464320625610899,7.7825
0.708699902248302,7.785
0.610948191593401,7.7875
0.659824046920798,7.79
0.317693059628499,7.7925
0.366568914955998,7.795
0.415444770283502,7.7975
0.513196480938398,7.8
0.659824046920798,7.8025
0.610948191593401,7.805
0.562072336265902,7.8075
0.366568914955998,7.81
0.366568914955998,7.8125
0.317693059628499,7.815
0.513196480938398,7.8175
0.610948191593401,7.82
0.562072336265902,7.8225
0.562072336265902,7.825
0.268817204301102,7.8275
0.366568914955998,7.83
0.317693059628499,7.8325
0.513196480938398,7.835
0.562072336265902,7.8375
0.659824046920798,7.84
0.415444770283502,7.8425
0.317693059628499,7.845
0.415444770283502,7.8475
0.366568914955998,7.85
0.610948191593401,7.8525
0.610948191593401,7.855
0.562072336265902,7.8575
0.219941348973598,7.86
0.317693059628499,7.8625
0.366568914955998,7.865
0.415444770283502,7.8675
0.659824046920798,7.87
0.562072336265902,7.8725
0.513196480938398,7.875
0.464320625610899,7.8775
0.366568914955998,7.88
0.464320625610899,7.8825
0.659824046920798,7.885
0.659824046920798,7.8875
0.562072336265902,7.89
0.317693059628499,7.8925
0.317693059628499,7.895
0.415444770283502,7.8975
0.513196480938398,7.9
0.562072336265902,7.9025
0.659824046920798,7.905
0.610948191593401,7.9075
0.464320625610899,7.91
0.366568914955998,7.9125
0.415444770283502,7.915
0.562072336265902,7.9175
0.659824046920798,7.92
0.610948191593401,7.9225
0.610948191593401,7.925
0.268817204301102,7.9275
0.366568914955998,7.93
0.415444770283502,7.9325
0.610948191593401,7.935
0.659824046920798,7.9375
0.610948191593401,7.94
0.415444770283502,7.9425
0.268817204301102,7.945
0.415444770283502,7.9475
0.415444770283502,7.95
0.757575757575801,7.9525
0.708699902248302,7.955
0.562072336265902,7.9575
0.513196480938398,7.96
0.366568914955998,7.9625
0.415444770283502,7.965
0.610948191593401,7.9675
0.708699902248302,7.97
0.659824046920798,7.9725
0.610948191593401,7.975
0.317693059628499,7.9775
0.366568914955998,7.98
0.415444770283502,7.9825
0.464320625610899,7.985
0.659824046920798,7.9875
0.610948191593401,7.99
0.464320625610899,7.9925
0.268817204301102,7.995
0.366568914955998,7.9975
0.366568914955998,8
0.562072336265902,8.0025
0.708699902248302,8.005
0.610948191593401,8.0075
0.415444770283502,8.01
0.317693059628499,8.0125
0.415444770283502,8.015
0.464320625610899,8.0175
0.610948191593401,8.02
0.659824046920798,8.0225
0.659824046920798,8.025
0.317693059628499,8.0275
0.366568914955998,8.03
0.415444770283502,8.0325
0.513196480938398,8.035
0.806451612903198,8.0375
0.610948191593401,8.04
0.464320625610899,8.0425
0.219941348973598,8.045
0.317693059628499,8.0475
0.415444770283502,8.05
0.610948191593401,8.0525
0.659824046920798,8.055
0.610948191593401,8.0575
0.513196480938398,8.06
0.317693059628499,8.0625
0.415444770283502,8.065
0.513196480938398,8.0675
0.708699902248302,8.07
0.659824046920798,8.0725
0.562072336265902,8.075
0.464320625610899,8.0775
0.317693059628499,8.08
0.415444770283502,8.0825
0.513196480938398,8.085
0.659824046920798,8.0875
0.659824046920798,8.09
0.610948191593401,8.0925
0.464320625610899,8.095
0.317693059628499,8.0975
0.415444770283502,8.1
0.513196480938398,8.1025
0.659824046920798,8.105
0.610948191593401,8.1075
0.513196480938398,8.11
0.219941348973598,8.1125
0.366568914955998,8.115
0.415444770283502,8.1175
0.610948191593401,8.12
0.659824046920798,8.1225
0.562072336265902,8.125
0.415444770283502,8.1275
0.317693059628499,8.13
0.366568914955998,8.1325
0.415444770283502,8.135
0.610948191593401,8.1375
0.659824046920798,8.14
0.562072336265902,8.1425
0.317693059628499,8.145
0.366568914955998,8.1475
0.464320625610899,8.15
0.562072336265902,8.1525
0.659824046920798,8.155
0.659824046920798,8.1575
0.562072336265902,8.16
0.317693059628499,8.1625
0.366568914955998,8.165
0.464320625610899,8.1675
0.513196480938398,8.17
0.659824046920798,8.1725
0.610948191593401,8.175
0.562072336265902,8.1775
0.317693059628499,8.18
0.366568914955998,8.1825
0.366568914955998,8.185
0.513196480938398,8.1875
0.562072336265902,8.19
0.464320625610899,8.1925
0.317693059628499,8.195
0.268817204301102,8.1975
0.366568914955998,8.2
0.562072336265902,8.2025
0.659824046920798,8.205
0.610948191593401,8.2075
0.513196480938398,8.21
0.464320625610899,8.2125
0.415444770283502,8.215
0.464320625610899,8.2175
0.562072336265902,8.22
0.708699902248302,8.2225
0.659824046920798,8.225
0.464320625610899,8.2275
0.366568914955998,8.23
0.415444770283502,8.2325
0.513196480938398,8.235
0.659824046920798,8.2375
0.659824046920798,8.24
0.610948191593401,8.2425
0.415444770283502,8.245
0.268817204301102,8.2475
0.415444770283502,8.25
0.513196480938398,8.2525
0.659824046920798,8.255
0.659824046920798,8.2575
0.659824046920798,8.26
0.415444770283502,8.2625
0.268817204301102,8.265
0.268817204301102,8.2675
0.268817204301102,8.27
0.219941348973598,8.2725
0.0733137829911978,8.275
-0.317693059628499,8.2775
-0.757575757575801,8.28
-1.0508308895406,8.2825
-1.197458455523,8.285
-1.0508308895406,8.2875
-0.953079178885599,8.29
-0.659824046920798,8.2925
-0.366568914955998,8.295
0.415444770283502,8.2975
1.4418377321603,8.3
2.4193548387097,8.3025
3.2013685239492,8.305
3.5923753665689,8.3075
3.5434995112414,8.31
3.2013685239492,8.3125
2.7126099706745,8.315
2.3216031280547,8.3175
1.930596285435,8.32
1.4418377321603,8.3225
1.0508308895406,8.325
0.610948191593401,8.3275
0.171065493646099,8.33
-0.0733137829911978,8.3325
-0.219941348973598,8.335
-0.171065493646099,8.3375
-0.171065493646099,8.34
-0.219941348973598,8.3425
-0.366568914955998,8.345
-0.513196480938398,8.3475
-0.317693059628499,8.35
-0.0733137829911978,8.3525
0.0733137829911978,8.355
0.171065493646099,8.3575
0.122189638318702,8.36
-0.0244379276636986,8.3625
-0.122189638318702,8.365
0.0733137829911978,8.3675
0.171065493646099,8.37
0.562072336265902,8.3725
0.464320625610899,8.375
0.415444770283502,8.3775
0.122189638318702,8.38
0.171065493646099,8.3825
0.317693059628499,8.385
0.415444770283502,8.3875
0.610948191593401,8.39
0.562072336265902,8.3925
0.464320625610899,8.395
0.268817204301102,8.3975
0.317693059628499,8.4
0.415444770283502,8.4025
0.562072336265902,8.405
0.659824046920798,8.4075
0.610948191593401,8.41
0.415444770283502,8.4125
0.219941348973598,8.415
0.366568914955998,8.4175
0.464320625610899,8.42
0.513196480938398,8.4225
0.659824046920798,8.425
0.562072336265902,8.4275
0.415444770283502,8.43
0.317693059628499,8.4325
0.415444770283502,8.435
0.513196480938398,8.4375
0.708699902248302,8.44
0.659824046920798,8.4425
0.610948191593401,8.445
0.366568914955998,8.4475
0.317693059628499,8.45
0.415444770283502,8.4525
0.513196480938398,8.455
0.708699902248302,8.4575
0.610948191593401,8.46
0.464320625610899,8.4625
0.268817204301102,8.465
0.366568914955998,8.4675
0.415444770283502,8.47
0.513196480938398,8.4725
0.659824046920798,8.475
0.610948191593401,8.4775
0.464320625610899,8.48
0.366568914955998,8.4825
0.366568914955998,8.485
0.562072336265902,8.4875
0.610948191593401,8.49
0.659824046920798,8.4925
0.562072336265902,8.495
0.464320625610899,8.4975
0.317693059628499,8.5
0.415444770283502,8.5025
0.464320625610899,8.505
0.708699902248302,8.5075
0.659824046920798,8.51
0.610948191593401,8.5125
0.366568914955998,8.515
0.366568914955998,8.5175
0.464320625610899,8.52
0.610948191593401,8.5225
0.708699902248302,8.525
0.659824046920798,8.5275
0.464320625610899,8.53
0.317693059628499,8.5325
0.415444770283502,8.535
0.464320625610899,8.5375
0.708699902248302,8.54
0.757575757575801,8.5425
0.659824046920798,8.545
0.513196480938398,8.5475
0.415444770283502,8.55
0.513196480938398,8.5525
0.610948191593401,8.555
0.757575757575801,8.5575
0.757575757575801,8.56
0.806451612903198,8.5625
0.464320625610899,8.565
0.464320625610899,8.5675
0.513196480938398,8.57
0.610948191593401,8.5725
0.806451612903198,8.575
0.708699902248302,8.5775
0.513196480938398,8.58
0.464320625610899,8.5825
0.415444770283502,8.585
0.513196480938398,8.5875
0.708699902248302,8.59
0.708699902248302,8.5925
0.610948191593401,8.595
0.415444770283502,8.5975
0.219941348973598,8.6
0.366568914955998,8.6025
0.562072336265902,8.605
0.610948191593401,8.6075
0.610948191593401,8.61
0.513196480938398,8.6125
0.366568914955998,8.615
0.317693059628499,8.6175
0.415444770283502,8.62
0.610948191593401,8.6225
0.757575757575801,8.625
0.659824046920798,8.6275
0.610948191593401,8.63
0.415444770283502,8.6325
0.366568914955998,8.635
0.464320625610899,8.6375
0.659824046920798,8.64
0.659824046920798,8.6425
0.610948191593401,8.645
0.562072336265902,8.6475
0.317693059628499,8.65
0.366568914955998,8.6525
0.366568914955998,8.655
0.659824046920798,8.6575
0.659824046920798,8.66
0.562072336265902,8.6625
0.464320625610899,8.665
0.464320625610899,8.6675
0.415444770283502,8.67
0.415444770283502,8.6725
0.610948191593401,8.675
0.659824046920798,8.6775
0.562072336265902,8.68
0.366568914955998,8.6825
0.317693059628499,8.685
0.415444770283502,8.6875
0.513196480938398,8.69
0.562072336265902,8.6925
0.610948191593401,8.695
0.562072336265902,8.6975
0.415444770283502,8.7
0.317693059628499,8.7025
0.415444770283502,8.705
0.513196480938398,8.7075
0.610948191593401,8.71
0.562072336265902,8.7125
0.464320625610899,8.715
0.268817204301102,8.7175
0.366568914955998,8.72
0.415444770283502,8.7225
0.610948191593401,8.725
0.610948191593401,8.7275
0.562072336265902,8.73
0.513196480938398,8.7325
0.317693059628499,8.735
0.366568914955998,8.7375
0.464320625610899,8.74
0.708699902248302,8.7425
0.610948191593401,8.745
0.464320625610899,8.7475
0.464320625610899,8.75
0.268817204301102,8.7525
0.366568914955998,8.755
0.464320625610899,8.7575
0.610948191593401,8.76
0.610948191593401,8.7625
0.513196480938398,8.765
0.366568914955998,8.7675
0.317693059628499,8.77
0.464320625610899,8.7725
0.562072336265902,8.775
0.659824046920798,8.7775
0.562072336265902,8.78
0.513196480938398,8.7825
0.415444770283502,8.785
0.415444770283502,8.7875
0.415444770283502,8.79
0.610948191593401,8.7925
0.659824046920798,8.795
0.610948191593401,8.7975
0.366568914955998,8.8
0.317693059628499,8.8025
0.415444770283502,8.805
0.415444770283502,8.8075
0.708699902248302,8.81
0.610948191593401,8.8125
0.659824046920798,8.815
0.317693059628499,8.8175
0.366568914955998,8.82
0.464320625610899,8.8225
0.610948191593401,8.825
0.708699902248302,8.8275
0.610948191593401,8.83
0.464320625610899,8.8325
0.268817204301102,8.835
0.366568914955998,8.8375
0.513196480938398,8.84
0.610948191593401,8.8425
0.659824046920798,8.845
0.610948191593401,8.8475
0.562072336265902,8.85
0.317693059628499,8.8525
0.415444770283502,8.855
0.415444770283502,8.8575
0.610948191593401,8.86
0.659824046920798,8.8625
0.708699902248302,8.865
0.268817204301102,8.8675
0.366568914955998,8.87
0.415444770283502,8.8725
0.562072336265902,8.875
0.659824046920798,8.8775
0.659824046920798,8.88
0.610948191593401,8.8825
0.317693059628499,8.885
0.366568914955998,8.8875
0.464320625610899,8.89
0.708699902248302,8.8925
0.659824046920798,8.895
0.610948191593401,8.8975
0.415444770283502,8.9
0.268817204301102,8.9025
0.415444770283502,8.905
0.415444770283502,8.9075
0.610948191593401,8.91
0.659824046920798,8.9125
0.562072336265902,8.915
0.415444770283502,8.9175
0.415444770283502,8.92
0.415444770283502,8.9225
0.464320625610899,8.925
0.610948191593401,8.9275
0.610948191593401,8.93
0.562072336265902,8.9325
0.415444770283502,8.935
0.366568914955998,8.9375
0.415444770283502,8.94
0.610948191593401,8.9425
0.659824046920798,8.945
0.610948191593401,8.9475
0.610948191593401,8.95
0.366568914955998,8.9525
0.366568914955998,8.955
0.415444770283502,8.9575
0.708699902248302,8.96
0.659824046920798,8.9625
0.562072336265902,8.965
0.464320625610899,8.9675
0.317693059628499,8.97
0.415444770283502,8.9725
0.464320625610899,8.975
0.708699902248302,8.9775
0.659824046920798,8.98
0.562072336265902,8.9825
0.513196480938398,8.985
0.317693059628499,8.9875
0.415444770283502,8.99
0.610948191593401,8.9925
0.610948191593401,8.995
0.610948191593401,8.9975
0.562072336265902,9
0.317693059628499,9.0025
0.366568914955998,9.005
0.464320625610899,9.0075
0.562072336265902,9.01
0.659824046920798,9.0125
0.610948191593401,9.015
0.415444770283502,9.0175
0.317693059628499,9.02
0.415444770283502,9.0225
0.415444770283502,9.025
0.610948191593401,9.0275
0.659824046920798,9.03
0.562072336265902,9.0325
0.366568914955998,9.035
0.317693059628499,9.0375
0.415444770283502,9.04
0.513196480938398,9.0425
0.610948191593401,9.045
0.610948191593401,9.0475
0.562072336265902,9.05
0.415444770283502,9.0525
0.366568914955998,9.055
0.415444770283502,9.0575
0.562072336265902,9.06
0.659824046920798,9.0625
0.610948191593401,9.065
0.415444770283502,9.0675
0.415444770283502,9.07
0.415444770283502,9.0725
0.562072336265902,9.075
0.562072336265902,9.0775
0.708699902248302,9.08
0.610948191593401,9.0825
0.513196480938398,9.085
0.317693059628499,9.0875
0.415444770283502,9.09
0.464320625610899,9.0925
0.708699902248302,9.095
0.659824046920798,9.0975
0.610948191593401,9.1
0.513196480938398,9.1025
0.366568914955998,9.105
0.415444770283502,9.1075
0.562072336265902,9.11
0.610948191593401,9.1125
0.610948191593401,9.115
0.513196480938398,9.1175
0.268817204301102,9.12
0.317693059628499,9.1225
0.415444770283502,9.125
0.562072336265902,9.1275
0.610948191593401,9.13
0.513196480938398,9.1325
0.562072336265902,9.135
0.268817204301102,9.1375
0.366568914955998,9.14
0.562072336265902,9.1425
0.708699902248302,9.145
0.708699902248302,9.1475
0.610948191593401,9.15
0.415444770283502,9.1525
0.415444770283502,9.155
0.464320625610899,9.1575
0.562072336265902,9.16
0.708699902248302,9.1625
0.708699902248302,9.165
0.708699902248302,9.1675
0.513196480938398,9.17
0.415444770283502,9.1725
0.415444770283502,9.175
0.610948191593401,9.1775
0.708699902248302,9.18
0.610948191593401,9.1825
0.562072336265902,9.185
0.317693059628499,9.1875
0.415444770283502,9.19
0.415444770283502,9.1925
0.562072336265902,9.195
0.659824046920798,9.1975
0.562072336265902,9.2
0.366568914955998,9.2025
0.171065493646099,9.205
0.317693059628499,9.2075
0.268817204301102,9.21
0.317693059628499,9.2125
0.219941348973598,9.215
-0.0244379276636986,9.2175
-0.464320625610899,9.22
-0.855327468230702,9.2225
-1.0508308895406,9.225
-1.2463343108504,9.2275
-1.099706744868,9.23
-0.953079178885599,9.2325
-0.708699902248302,9.235
-0.366568914955998,9.2375
0.610948191593401,9.24
1.7350928641251,9.2425
2.663734115347,9.245
3.2991202346041,9.2475
3.494623655914,9.25
3.2991202346041,9.2525
3.0058651026393,9.255
2.663734115347,9.2575
2.1260997067449,9.26
1.8817204301075,9.2625
1.3929618768328,9.265
0.953079178885599,9.2675
0.464320625610899,9.27
0.0733137829911978,9.2725
-0.122189638318702,9.275
-0.171065493646099,9.2775
-0.0733137829911978,9.28
-0.219941348973598,9.2825
-0.268817204301102,9.285
-0.464320625610899,9.2875
-0.366568914955998,9.29
-0.268817204301102,9.2925
0.0733137829911978,9.295
0.219941348973598,9.2975
0.171065493646099,9.3
0.0733137829911978,9.3025
-0.0733137829911978,9.305
0.0244379276636986,9.3075
0.219941348973598,9.31
0.464320625610899,9.3125
0.464320625610899,9.315
0.415444770283502,9.3175
0.317693059628499,9.32
0.219941348973598,9.3225
0.219941348973598,9.325
0.366568914955998,9.3275
0.659824046920798,9.33
0.562072336265902,9.3325
0.464320625610899,9.335
0.268817204301102,9.3375
0.268817204301102,9.34
0.366568914955998,9.3425
0.415444770283502,9.345
0.659824046920798,9.3475
0.610948191593401,9.35
0.464320625610899,9.3525
0.268817204301102,9.355
0.317693059628499,9.3575
0.415444770283502,9.36
0.513196480938398,9.3625
0.659824046920798,9.365
0.610948191593401,9.3675
0.610948191593401,9.37
0.268817204301102,9.3725
0.366568914955998,9.375
0.415444770283502,9.3775
0.513196480938398,9.38
0.659824046920798,9.3825
0.562072336265902,9.385
0.513196480938398,9.3875
0.366568914955998,9.39
0.366568914955998,9.3925
0.562072336265902,9.395
0.757575757575801,9.3975
0.610948191593401,9.4
0.464320625610899,9.4025
0.317693059628499,9.405
0.317693059628499,9.4075
0.415444770283502,9.41
0.562072336265902,9.4125
0.659824046920798,9.415
0.610948191593401,9.4175
0.513196480938398,9.42
0.268817204301102,9.4225
0.366568914955998,9.425
0.464320625610899,9.4275
0.464320625610899,9.43
0.659824046920798,9.4325
0.610948191593401,9.435
0.513196480938398,9.4375
0.366568914955998,9.44
0.366568914955998,9.4425
0.366568914955998,9.445
0.659824046920798,9.4475
0.659824046920798,9.45
0.610948191593401,9.4525
0.415444770283502,9.455
0.366568914955998,9.4575
0.464320625610899,9.46
0.562072336265902,9.4625
0.806451612903198,9.465
0.659824046920798,9.4675
0.513196480938398,9.47
0.415444770283502,9.4725
0.415444770283502,9.475
0.513196480938398,9.4775
0.610948191593401,9.48
0.757575757575801,9.4825
0.659824046920798,9.485
0.562072336265902,9.4875
0.513196480938398,9.49
0.464320625610899,9.4925
0.610948191593401,9.495
0.659824046920798,9.4975
0.757575757575801,9.5
0.659824046920798,9.5025
0.562072336265902,9.505
0.513196480938398,9.5075
0.513196480938398,9.51
0.513196480938398,9.5125
0.757575757575801,9.515
0.806451612903198,9.5175
0.757575757575801,9.52
0.464320625610899,9.5225
0.464320625610899,9.525
0.513196480938398,9.5275
0.610948191593401,9.53
0.757575757575801,9.5325
0.659824046920798,9.535
0.513196480938398,9.5375
0.268817204301102,9.54
0.366568914955998,9.5425
0.464320625610899,9.545
0.562072336265902,9.5475
0.610948191593401,9.55
0.562072336265902,9.5525
0.415444770283502,9.555
0.171065493646099,9.5575
0.317693059628499,9.56
0.415444770283502,9.5625
0.562072336265902,9.565
0.610948191593401,9.5675
0.562072336265902,9.57
0.366568914955998,9.5725
0.366568914955998,9.575
0.415444770283502,9.5775
0.415444770283502,9.58
0.708699902248302,9.5825
0.659824046920798,9.585
0.659824046920798,9.5875
0.415444770283502,9.59
0.366568914955998,9.5925
0.464320625610899,9.595
0.562072336265902,9.5975
0.708699902248302,9.6
0.659824046920798,9.6025
0.610948191593401,9.605
0.268817204301102,9.6075
0.366568914955998,9.61
0.366568914955998,9.6125
0.562072336265902,9.615
0.659824046920798,9.6175
0.562072336265902,9.62
0.415444770283502,9.6225
0.268817204301102,9.625
0.366568914955998,9.6275
0.415444770283502,9.63
0.659824046920798,9.6325
0.610948191593401,9.635
0.562072336265902,9.6375
0.415444770283502,9.64
0.317693059628499,9.6425
0.366568914955998,9.645
0.415444770283502,9.6475
0.562072336265902,9.65
0.610948191593401,9.6525
0.464320625610899,9.655
0.317693059628499,9.6575
0.317693059628499,9.66
0.415444770283502,9.6625
0.562072336265902,9.665
0.659824046920798,9.6675
0.610948191593401,9.67
0.562072336265902,9.6725
0.268817204301102,9.675
0.317693059628499,9.6775
0.513196480938398,9.68
0.464320625610899,9.6825
0.610948191593401,9.685
0.562072336265902,9.6875
0.464320625610899,9.69
0.317693059628499,9.6925
0.366568914955998,9.695
0.464320625610899,9.6975
0.708699902248302,9.7
0.659824046920798,9.7025
0.513196480938398,9.705
0.317693059628499,9.7075
0.317693059628499,9.71
0.415444770283502,9.7125
0.513196480938398,9.715
0.659824046920798,9.7175
0.562072336265902,9.72
0.562072336265902,9.7225
0.366568914955998,9.725
0.366568914955998,9.7275
0.415444770283502,9.73
0.610948191593401,9.7325
0.659824046920798,9.735
0.610948191593401,9.7375
0.562072336265902,9.74
0.366568914955998,9.7425
0.366568914955998,9.745
0.415444770283502,9.7475
0.562072336265902,9.75
0.659824046920798,9.7525
0.610948191593401,9.755
0.464320625610899,9.7575
0.366568914955998,9.76
0.464320625610899,9.7625
0.513196480938398,9.765
0.708699902248302,9.7675
0.659824046920798,9.77
0.562072336265902,9.7725
0.415444770283502,9.775
0.317693059628499,9.7775
0.415444770283502,9.78
0.562072336265902,9.7825
0.659824046920798,9.785
0.562072336265902,9.7875
0.513196480938398,9.79
0.268817204301102,9.7925
0.366568914955998,9.795
0.415444770283502,9.7975
0.562072336265902,9.8
0.659824046920798,9.8025
0.610948191593401,9.805
0.366568914955998,9.8075
0.317693059628499,9.81
0.415444770283502,9.8125
0.464320625610899,9.815
0.757575757575801,9.8175
0.659824046920798,9.82
0.513196480938398,9.8225
0.415444770283502,9.825
0.317693059628499,9.8275
0.415444770283502,9.83
0.464320625610899,9.8325
0.562072336265902,9.835
0.562072336265902,9.8375
0.513196480938398,9.84
0.268817204301102,9.8425
0.317693059628499,9.845
0.415444770283502,9.8475
0.708699902248302,9.85
0.659824046920798,9.8525
0.610948191593401,9.855
0.562072336265902,9.8575
0.464320625610899,9.86
0.366568914955998,9.8625
0.464320625610899,9.865
0.610948191593401,9.8675
0.659824046920798,9.87
0.610948191593401,9.8725
0.317693059628499,9.875
0.317693059628499,9.8775
0.415444770283502,9.88
0.464320625610899,9.8825
0.708699902248302,9.885
0.659824046920798,9.8875
0.562072336265902,9.89
0.268817204301102,9.8925
0.366568914955998,9.895
0.415444770283502,9.8975
0.562072336265902,9.9
0.659824046920798,9.9025
0.659824046920798,9.905
0.562072336265902,9.9075
0.464320625610899,9.91
0.366568914955998,9.9125
0.415444770283502,9.915
0.513196480938398,9.9175
0.659824046920798,9.92
0.562072336265902,9.9225
0.366568914955998,9.925
0.415444770283502,9.9275
0.415444770283502,9.93
0.415444770283502,9.9325
0.562072336265902,9.935
0.659824046920798,9.9375
0.562072336265902,9.94
0.464320625610899,9.9425
0.366568914955998,9.945
0.415444770283502,9.9475
0.464320625610899,9.95
0.610948191593401,9.9525
0.610948191593401,9.955
0.610948191593401,9.9575
0.415444770283502,9.96
0.317693059628499,9.9625
0.415444770283502,9.965
0.610948191593401,9.9675
0.659824046920798,9.97
0.610948191593401,9.9725
0.415444770283502,9.975
0.219941348973598,9.9775
0.366568914955998,9.98
0.513196480938398,9.9825
0.610948191593401,9.985
0.659824046920798,9.9875
0.562072336265902,9.99
0.366568914955998,9.9925
0.317693059628499,9.995
0.415444770283502,9.9975
0.610948191593401,10
0.562072336265902,10.0025
0.659824046920798,10.005
0.562072336265902,10.0075
0.366568914955998,10.01
0.366568914955998,10.0125
0.415444770283502,10.015
0.513196480938398,10.0175
0.659824046920798,10.02
0.610948191593401,10.0225
0.562072336265902,10.025
0.219941348973598,10.0275
0.366568914955998,10.03
0.366568914955998,10.0325
0.513196480938398,10.035
0.708699902248302,10.0375
0.610948191593401,10.04
0.513196480938398,10.0425
0.268817204301102,10.045
0.366568914955998,10.0475
0.366568914955998,10.05
0.708699902248302,10.0525
0.659824046920798,10.055
0.513196480938398,10.0575
0.317693059628499,10.06
0.268817204301102,10.0625
0.415444770283502,10.065
0.464320625610899,10.0675
0.659824046920798,10.07
0.659824046920798,10.0725
0.708699902248302,10.075
0.317693059628499,10.0775
0.415444770283502,10.08
0.464320625610899,10.0825
0.610948191593401,10.085
0.708699902248302,10.0875
0.610948191593401,10.09
0.610948191593401,10.0925
0.464320625610899,10.095
0.415444770283502,10.0975
0.513196480938398,10.1
0.610948191593401,10.1025
0.659824046920798,10.105
0.562072336265902,10.1075
0.366568914955998,10.11
0.268817204301102,10.1125
0.366568914955998,10.115
0.513196480938398,10.1175
0.659824046920798,10.12
0.610948191593401,10.1225
0.513196480938398,10.125
0.219941348973598,10.1275
0.0244379276636986,10.13
-0.0733137829911978,10.1325
-0.0733137829911978,10.135
-0.317693059628499,10.1375
-0.610948191593401,10.14
-1.0019550342131,10.1425
-1.197458455523,10.145
-1.2952101661779,10.1475
-0.806451612903198,10.15
-0.268817204301102,10.1525
0.562072336265902,10.155
1.3929618768328,10.1575
2.3216031280547,10.16
2.9081133919844,10.1625
3.4457478005865,10.165
3.5923753665689,10.1675
3.6412512218964,10.17
3.2991202346041,10.1725
2.761485826002,10.175
1.9794721407625,10.1775
1.4907135874878,10.18
1.0508308895406,10.1825
0.708699902248302,10.185
0.513196480938398,10.1875
0.219941348973598,10.19
-0.122189638318702,10.1925
-0.464320625610899,10.195
-0.659824046920798,10.1975
-0.659824046920798,10.2
-0.562072336265902,10.2025
-0.415444770283502,10.205
-0.415444770283502,10.2075
-0.366568914955998,10.21
-0.562072336265902,10.2125
-0.366568914955998,10.215
-0.122189638318702,10.2175
0.122189638318702,10.22
0.219941348973598,10.2225
0.171065493646099,10.225
0.0244379276636986,10.2275
0.0244379276636986,10.23
0.171065493646099,10.2325
0.219941348973598,10.235
0.366568914955998,10.2375
0.513196480938398,10.24
0.415444770283502,10.2425
0.171065493646099,10.245
0.219941348973598,10.2475
0.317693059628499,10.25
0.415444770283502,10.2525
0.513196480938398,10.255
0.562072336265902,10.2575
0.415444770283502,10.26
0.317693059628499,10.2625
0.317693059628499,10.265
0.415444770283502,10.2675
0.562072336265902,10.27
0.659824046920798,10.2725
0.610948191593401,10.275
0.513196480938398,10.2775
0.219941348973598,10.28
0.366568914955998,10.2825
0.464320625610899,10.285
0.659824046920798,10.2875
0.659824046920798,10.29
0.562072336265902,10.2925
0.366568914955998,10.295
0.317693059628499,10.2975
0.415444770283502,10.3
0.464320625610899,10.3025
0.562072336265902,10.305
0.659824046920798,10.3075
0.464320625610899,10.31
0.317693059628499,10.3125
0.366568914955998,10.315
0.415444770283502,10.3175
0.562072336265902,10.32
0.659824046920798,10.3225
0.610948191593401,10.325
0.513196480938398,10.3275
0.317693059628499,10.33
0.366568914955998,10.3325
0.415444770283502,10.335
0.513196480938398,10.3375
0.659824046920798,10.34
0.562072336265902,10.3425
0.513196480938398,10.345
0.366568914955998,10.3475
0.366568914955998,10.35
0.415444770283502,10.3525
0.659824046920798,10.355
0.659824046920798,10.3575
0.513196480938398,10.36
0.317693059628499,10.3625
0.366568914955998,10.365
0.415444770283502,10.3675
0.415444770283502,10.37
0.562072336265902,10.3725
0.610948191593401,10.375
0.610948191593401,10.3775
0.415444770283502,10.38
0.366568914955998,10.3825
0.464320625610899,10.385
0.659824046920798,10.3875
0.757575757575801,10.39
0.659824046920798,10.3925
0.610948191593401,10.395
0.464320625610899,10.3975
0.415444770283502,10.4
0.610948191593401,10.4025
0.610948191593401,10.405
0.757575757575801,10.4075
0.659824046920798,10.41
0.610948191593401,10.4125
0.464320625610899,10.415
0.562072336265902,10.4175
0.659824046920798,10.42
0.953079178885599,10.4225
0.806451612903198,10.425
0.757575757575801,10.4275
0.464320625610899,10.43
0.513196480938398,10.4325
0.562072336265902,10.435
0.806451612903198,10.4375
0.806451612903198,10.44
0.757575757575801,10.4425
0.610948191593401,10.445
0.366568914955998,10.4475
0.464320625610899,10.45
0.562072336265902,10.4525
0.708699902248302,10.455
0.757575757575801,10.4575
0.659824046920798,10.46
0.415444770283502,10.4625
0.366568914955998,10.465
0.415444770283502,10.4675
0.464320625610899,10.47
0.708699902248302,10.4725
0.659824046920798,10.475
0.562072336265902,10.4775
0.415444770283502,10.48
0.317693059628499,10.4825
0.415444770283502,10.485
0.464320625610899,10.4875
0.708699902248302,10.49
0.659824046920798,10.4925
0.659824046920798,10.495
0.268817204301102,10.4975
0.317693059628499,10.5
0.415444770283502,10.5025
0.464320625610899,10.505
0.659824046920798,10.5075
0.610948191593401,10.51
0.415444770283502,10.5125
0.366568914955998,10.515
0.366568914955998,10.5175
0.415444770283502,10.52
0.562072336265902,10.5225
0.708699902248302,10.525
0.610948191593401,10.5275
0.366568914955998,10.53
0.366568914955998,10.5325
0.415444770283502,10.535
0.562072336265902,10.5375
0.610948191593401,10.54
0.659824046920798,10.5425
0.610948191593401,10.545
0.513196480938398,10.5475
0.366568914955998,10.55
0.415444770283502,10.5525
0.513196480938398,10.555
0.708699902248302,10.5575
0.562072336265902,10.56
0.464320625610899,10.5625
0.366568914955998,10.565
0.317693059628499,10.5675
0.415444770283502,10.57
0.610948191593401,10.5725
0.610948191593401,10.575
0.513196480938398,10.5775
0.366568914955998,10.58
0.415444770283502,10.5825
0.366568914955998,10.585
0.415444770283502,10.5875
0.464320625610899,10.59
0.610948191593401,10.5925
0.513196480938398,10.595
0.366568914955998,10.5975
0.317693059628499,10.6
0.366568914955998,10.6025
0.415444770283502,10.605
0.610948191593401,10.6075
0.610948191593401,10.61
0.610948191593401,10.6125
0.268817204301102,10.615
0.317693059628499,10.6175
0.464320625610899,10.62
0.513196480938398,10.6225
0.659824046920798,10.625
0.610948191593401,10.6275
0.513196480938398,10.63
0.464320625610899,10.6325
0.366568914955998,10.635
0.366568914955998,10.6375
0.513196480938398,10.64
0.659824046920798,10.6425
0.562072336265902,10.645
0.415444770283502,10.6475
0.317693059628499,10.65
0.366568914955998,10.6525
0.415444770283502,10.655
0.806451612903198,10.6575
0.659824046920798,10.66
0.610948191593401,10.6625
0.513196480938398,10.665
0.366568914955998,10.6675
0.464320625610899,10.67
0.562072336265902,10.6725
0.757575757575801,10.675
0.659824046920798,10.6775
0.464320625610899,10.68
0.464320625610899,10.6825
0.366568914955998,10.685
0.415444770283502,10.6875
0.562072336265902,10.69
0.708699902248302,10.6925
0.610948191593401,10.695
0.562072336265902,10.6975
0.219941348973598,10.7
0.366568914955998,10.7025
0.415444770283502,10.705
0.708699902248302,10.7075
0.659824046920798,10.71
0.562072336265902,10.7125
0.415444770283502,10.715
0.317693059628499,10.7175
0.366568914955998,10.72
0.464320625610899,10.7225
0.708699902248302,10.725
0.659824046920798,10.7275
0.464320625610899,10.73
0.317693059628499,10.7325
0.366568914955998,10.735
0.415444770283502,10.7375
0.610948191593401,10.74
0.659824046920798,10.7425
0.610948191593401,10.745
0.464320625610899,10.7475
0.415444770283502,10.75
0.366568914955998,10.7525
0.464320625610899,10.755
0.659824046920798,10.7575
0.659824046920798,10.76
0.610948191593401,10.7625
0.415444770283502,10.765
0.366568914955998,10.7675
0.366568914955998,10.77
0.415444770283502,10.7725
0.513196480938398,10.775
0.659824046920798,10.7775
0.562072336265902,10.78
0.268817204301102,10.7825
0.317693059628499,10.785
0.415444770283502,10.7875
0.513196480938398,10.79
0.562072336265902,10.7925
0.659824046920798,10.795
0.513196480938398,10.7975
0.464320625610899,10.8
0.366568914955998,10.8025
0.464320625610899,10.805
0.562072336265902,10.8075
0.659824046920798,10.81
0.562072336265902,10.8125
0.513196480938398,10.815
0.415444770283502,10.8175
0.366568914955998,10.82
0.415444770283502,10.8225
0.562072336265902,10.825
0.659824046920798,10.8275
0.562072336265902,10.83
0.317693059628499,10.8325
0.317693059628499,10.835
0.366568914955998,10.8375
0.464320625610899,10.84
0.610948191593401,10.8425
0.610948191593401,10.845
0.610948191593401,10.8475
0.415444770283502,10.85
0.317693059628499,10.8525
0.415444770283502,10.855
0.513196480938398,10.8575
0.659824046920798,10.86
0.659824046920798,10.8625
0.513196480938398,10.865
0.415444770283502,10.8675
0.415444770283502,10.87
0.464320625610899,10.8725
0.659824046920798,10.875
0.708699902248302,10.8775
0.562072336265902,10.88
0.562072336265902,10.8825
0.317693059628499,10.885
0.366568914955998,10.8875
0.415444770283502,10.89
0.708699902248302,10.8925
0.659824046920798,10.895
0.659824046920798,10.8975
0.268817204301102,10.9
0.268817204301102,10.9025
0.317693059628499,10.905
0.415444770283502,10.9075
0.659824046920798,10.91
0.562072336265902,10.9125
0.562072336265902,10.915
0.415444770283502,10.9175
0.317693059628499,10.92
0.415444770283502,10.9225
0.562072336265902,10.925
0.659824046920798,10.9275
0.610948191593401,10.93
0.610948191593401,10.9325
0.415444770283502,10.935
0.415444770283502,10.9375
0.415444770283502,10.94
0.708699902248302,10.9425
0.659824046920798,10.945
0.610948191593401,10.9475
0.464320625610899,10.95
0.366568914955998,10.9525
0.415444770283502,10.955
0.464320625610899,10.9575
0.659824046920798,10.96
0.659824046920798,10.9625
0.659824046920798,10.965
0.366568914955998,10.9675
0.366568914955998,10.97
0.464320625610899,10.9725
0.464320625610899,10.975
0.708699902248302,10.9775
0.610948191593401,10.98
0.562072336265902,10.9825
0.219941348973598,10.985
0.268817204301102,10.9875
0.219941348973598,10.99
0.268817204301102,10.9925
0.0733137829911978,10.995
-0.268817204301102,10.9975
-0.708699902248302,11
-0.953079178885599,11.0025
-1.197458455523,11.005
-1.1485826001955,11.0075
-0.708699902248302,11.01
-0.464320625610899,11.0125
-0.0244379276636986,11.015
0.659824046920798,11.0175
1.5884652981427,11.02
2.5171065493646,11.0225
3.1524926686217,11.025
3.6412512218964,11.0275
3.5923753665689,11.03
3.1524926686217,11.0325
2.6148582600196,11.035
2.1749755620723,11.0375
1.6862170087977,11.04
1.2952101661779,11.0425
1.0019550342131,11.045
0.610948191593401,11.0475
0.122189638318702,11.05
-0.171065493646099,11.0525
-0.415444770283502,11.055
-0.464320625610899,11.0575
-0.464320625610899,11.06
-0.268817204301102,11.0625
-0.317693059628499,11.065
-0.513196480938398,11.0675
-0.464320625610899,11.07
-0.317693059628499,11.0725
-0.171065493646099,11.075
0.0733137829911978,11.0775
0.171065493646099,11.08
0.219941348973598,11.0825
0.122189638318702,11.085
0.0244379276636986,11.0875
0.171065493646099,11.09
0.268817204301102,11.0925
0.513196480938398,11.095
0.464320625610899,11.0975
0.513196480938398,11.1
0.171065493646099,11.1025
0.268817204301102,11.105
0.366568914955998,11.1075
0.464320625610899,11.11
0.610948191593401,11.1125
0.513196480938398,11.115
0.415444770283502,11.1175
0.268817204301102,11.12
0.366568914955998,11.1225
0.415444770283502,11.125
0.562072336265902,11.1275
0.610948191593401,11.13
0.562072336265902,11.1325
0.415444770283502,11.135
0.268817204301102,11.1375
0.415444770283502,11.14
0.513196480938398,11.1425
0.562072336265902,11.145
0.659824046920798,11.1475
0.513196480938398,11.15
0.268817204301102,11.1525
0.317693059628499,11.155
0.415444770283502,11.1575
0.610948191593401,11.16
0.708699902248302,11.1625
0.610948191593401,11.165
0.513196480938398,11.1675
0.268817204301102,11.17
0.366568914955998,11.1725
0.513196480938398,11.175
0.610948191593401,11.1775
0.659824046920798,11.18
0.562072336265902,11.1825
0.562072336265902,11.185
0.317693059628499,11.1875
0.415444770283502,11.19
0.513196480938398,11.1925
0.562072336265902,11.195
0.659824046920798,11.1975
0.610948191593401,11.2
0.268817204301102,11.2025
0.317693059628499,11.205
0.415444770283502,11.2075
0.513196480938398,11.21
0.610948191593401,11.2125
0.610948191593401,11.215
0.464320625610899,11.2175
0.317693059628499,11.22
0.366568914955998,11.2225
0.415444770283502,11.225
0.610948191593401,11.2275
0.659824046920798,11.23
0.659824046920798,11.2325
0.513196480938398,11.235
0.415444770283502,11.2375
0.415444770283502,11.24
0.464320625610899,11.2425
0.806451612903198,11.245
0.708699902248302,11.2475
0.659824046920798,11.25
0.513196480938398,11.2525
0.415444770283502,11.255
0.464320625610899,11.2575
0.659824046920798,11.26
0.708699902248302,11.2625
0.757575757575801,11.265
0.610948191593401,11.2675
0.610948191593401,11.27
0.464320625610899,11.2725
0.562072336265902,11.275
0.708699902248302,11.2775
0.806451612903198,11.28
0.757575757575801,11.2825
0.708699902248302,11.285
0.366568914955998,11.2875
0.513196480938398,11.29
0.562072336265902,11.2925
0.806451612903198,11.295
0.806451612903198,11.2975
0.708699902248302,11.3
0.610948191593401,11.3025
0.513196480938398,11.305
0.464320625610899,11.3075
0.562072336265902,11.31
0.562072336265902,11.3125
0.659824046920798,11.315
0.610948191593401,11.3175
0.366568914955998,11.32
0.317693059628499,11.3225
0.415444770283502,11.325
0.610948191593401,11.3275
0.659824046920798,11.33
0.610948191593401,11.3325
0.562072336265902,11.335
0.415444770283502,11.3375
0.317693059628499,11.34
0.415444770283502,11.3425
0.562072336265902,11.345
0.659824046920798,11.3475
0.610948191593401,11.35
0.415444770283502,11.3525
0.219941348973598,11.355
0.366568914955998,11.3575
0.464320625610899,11.36
0.610948191593401,11.3625
0.708699902248302,11.365
0.610948191593401,11.3675
0.415444770283502,11.37
0.317693059628499,11.3725
0.415444770283502,11.375
0.415444770283502,11.3775
0.708699902248302,11.38
0.659824046920798,11.3825
0.513196480938398,11.385
0.513196480938398,11.3875
0.366568914955998,11.39
0.415444770283502,11.3925
0.562072336265902,11.395
0.757575757575801,11.3975
0.659824046920798,11.4
0.464320625610899,11.4025
0.268817204301102,11.405
0.366568914955998,11.4075
0.464320625610899,11.41
0.708699902248302,11.4125
0.659824046920798,11.415
0.562072336265902,11.4175
0.415444770283502,11.42
0.317693059628499,11.4225
0.366568914955998,11.425
0.366568914955998,11.4275
0.610948191593401,11.43
0.610948191593401,11.4325
0.513196480938398,11.435
0.317693059628499,11.4375
0.268817204301102,11.44
0.366568914955998,11.4425
0.464320625610899,11.445
0.757575757575801,11.4475
0.610948191593401,11.45
0.415444770283502,11.4525
0.268817204301102,11.455
0.317693059628499,11.4575
0.415444770283502,11.46
0.513196480938398,11.4625
0.659824046920798,11.465
0.562072336265902,11.4675
0.366568914955998,11.47
0.366568914955998,11.4725
0.317693059628499,11.475
0.317693059628499,11.4775
0.513196480938398,11.48
0.659824046920798,11.4825
0.562072336265902,11.485
0.366568914955998,11.4875
0.317693059628499,11.49
0.366568914955998,11.4925
0.464320625610899,11.495
0.659824046920798,11.4975
0.659824046920798,11.5
0.659824046920798,11.5025
0.513196480938398,11.505
0.317693059628499,11.5075
0.415444770283502,11.51
0.513196480938398,11.5125
0.659824046920798,11.515
0.610948191593401,11.5175
0.562072336265902,11.52
0.219941348973598,11.5225
0.366568914955998,11.525
0.464320625610899,11.5275
0.757575757575801,11.53
0.708699902248302,11.5325
0.610948191593401,11.535
0.415444770283502,11.5375
0.317693059628499,11.54
0.366568914955998,11.5425
0.513196480938398,11.545
0.806451612903198,11.5475
0.659824046920798,11.55
0.562072336265902,11.5525
0.513196480938398,11.555
0.317693059628499,11.5575
0.415444770283502,11.56
0.610948191593401,11.5625
0.610948191593401,11.565
0.610948191593401,11.5675
0.562072336265902,11.57
0.366568914955998,11.5725
0.366568914955998,11.575
0.415444770283502,11.5775
0.562072336265902,11.58
0.659824046920798,11.5825
0.659824046920798,11.585
0.562072336265902,11.5875
0.268817204301102,11.59
0.415444770283502,11.5925
0.464320625610899,11.595
0.659824046920798,11.5975
0.659824046920798,11.6
0.610948191593401,11.6025
0.415444770283502,11.605
0.268817204301102,11.6075
0.415444770283502,11.61
0.415444770283502,11.6125
0.659824046920798,11.615
0.659824046920798,11.6175
0.708699902248302,11.62
0.464320625610899,11.6225
0.317693059628499,11.625
0.415444770283502,11.6275
0.415444770283502,11.63
0.562072336265902,11.6325
0.610948191593401,11.635
0.562072336265902,11.6375
0.268817204301102,11.64
0.366568914955998,11.6425
0.464320625610899,11.645
0.659824046920798,11.6475
0.708699902248302,11.65
0.610948191593401,11.6525
0.562072336265902,11.655
0.415444770283502,11.6575
0.366568914955998,11.66
0.415444770283502,11.6625
0.513196480938398,11.665
0.659824046920798,11.6675
0.562072336265902,11.67
0.464320625610899,11.6725
0.317693059628499,11.675
0.415444770283502,11.6775
0.464320625610899,11.68
0.610948191593401,11.6825
0.610948191593401,11.685
0.708699902248302,11.6875
0.366568914955998,11.69
0.317693059628499,11.6925
0.415444770283502,11.695
0.562072336265902,11.6975
0.659824046920798,11.7
0.610948191593401,11.7025
0.415444770283502,11.705
0.268817204301102,11.7075
0.317693059628499,11.71
0.513196480938398,11.7125
0.513196480938398,11.715
0.659824046920798,11.7175
0.562072336265902,11.72
0.464320625610899,11.7225
0.415444770283502,11.725
0.366568914955998,11.7275
0.317693059628499,11.73
0.513196480938398,11.7325
0.610948191593401,11.735
0.464320625610899,11.7375
0.366568914955998,11.74
0.268817204301102,11.7425
0.415444770283502,11.745
0.562072336265902,11.7475
0.806451612903198,11.75
0.659824046920798,11.7525
0.513196480938398,11.755
0.464320625610899,11.7575
0.415444770283502,11.76
0.513196480938398,11.7625
0.708699902248302,11.765
0.757575757575801,11.7675
0.659824046920798,11.77
0.659824046920798,11.7725
0.513196480938398,11.775
0.415444770283502,11.7775
0.513196480938398,11.78
0.708699902248302,11.7825
0.708699902248302,11.785
0.610948191593401,11.7875
0.464320625610899,11.79
0.317693059628499,11.7925
0.415444770283502,11.795
0.513196480938398,11.7975
0.659824046920798,11.8
0.610948191593401,11.8025
0.610948191593401,11.805
0.415444770283502,11.8075
0.268817204301102,11.81
0.317693059628499,11.8125
0.317693059628499,11.815
0.317693059628499,11.8175
0.171065493646099,11.82
-0.219941348973598,11.8225
-0.513196480938398,11.825
-0.806451612903198,11.8275
-0.855327468230702,11.83
-0.953079178885599,11.8325
-0.757575757575801,11.835
-0.562072336265902,11.8375
-0.317693059628499,11.84
0.219941348973598,11.8425
1.197458455523,11.845
2.1749755620723,11.8475
3.0058651026393,11.85
3.4457478005865,11.8525
3.4457478005865,11.855
3.2013685239492,11.8575
2.761485826002,11.86
2.3704789833822,11.8625
1.8817204301075,11.865
1.5395894428152,11.8675
1.0508308895406,11.87
0.659824046920798,11.8725
0.122189638318702,11.875
-0.219941348973598,11.8775
-0.317693059628499,11.88
-0.268817204301102,11.8825
-0.268817204301102,11.885
-0.366568914955998,11.8875
-0.513196480938398,11.89
-0.513196480938398,11.8925
-0.415444770283502,11.895
-0.317693059628499,11.8975
-0.0733137829911978,11.9
0.122189638318702,11.9025
0.0733137829911978,11.905
0.0733137829911978,11.9075
-0.0733137829911978,11.91
0.0733137829911978,11.9125
0.171065493646099,11.915
0.415444770283502,11.9175
0.415444770283502,11.92
0.317693059628499,11.9225
0.219941348973598,11.925
0.219941348973598,11.9275
0.317693059628499,11.93
0.562072336265902,11.9325
0.513196480938398,11.935
0.562072336265902,11.9375
0.415444770283502,11.94
0.415444770283502,11.9425
0.317693059628499,11.945
0.415444770283502,11.9475
0.513196480938398,11.95
0.659824046920798,11.9525
0.610948191593401,11.955
0.415444770283502,11.9575
0.268817204301102,11.96
0.366568914955998,11.9625
0.366568914955998,11.965
0.610948191593401,11.9675
0.659824046920798,11.97
0.562072336265902,11.9725
0.415444770283502,11.975
0.366568914955998,11.9775
0.415444770283502,11.98
0.562072336265902,11.9825
0.708699902248302,11.985
0.659824046920798,11.9875
0.659824046920798,11.99
0.415444770283502,11.9925
0.366568914955998,11.995
0.415444770283502,11.9975
0.610948191593401,12
0.659824046920798,12.0025
0.610948191593401,12.005
0.659824046920798,12.0075
0.268817204301102,12.01
0.366568914955998,12.0125
0.366568914955998,12.015
0.562072336265902,12.0175
0.659824046920798,12.02
0.610948191593401,12.0225
0.366568914955998,12.025
0.317693059628499,12.0275
0.366568914955998,12.03
0.415444770283502,12.0325
0.708699902248302,12.035
0.659824046920798,12.0375
0.562072336265902,12.04
0.415444770283502,12.0425
0.366568914955998,12.045
0.464320625610899,12.0475
0.513196480938398,12.05
0.806451612903198,12.0525
0.659824046920798,12.055
0.659824046920798,12.0575
0.366568914955998,12.06
0.415444770283502,12.0625
0.513196480938398,12.065
0.806451612903198,12.0675
0.757575757575801,12.07
0.659824046920798,12.0725
0.610948191593401,12.075
0.366568914955998,12.0775
0.464320625610899,12.08
0.562072336265902,12.0825
0.708699902248302,12.085
0.757575757575801,12.0875
0.659824046920798,12.09
0.513196480938398,12.0925
0.415444770283502,12.095
0.513196480938398,12.0975
0.610948191593401,12.1
0.757575757575801,12.1025
0.757575757575801,12.105
0.806451612903198,12.1075
0.464320625610899,12.11
0.464320625610899,12.1125
0.562072336265902,12.115
0.659824046920798,12.1175
0.806451612903198,12.12
0.708699902248302,12.1225
0.610948191593401,12.125
0.464320625610899,12.1275
0.415444770283502,12.13
0.415444770283502,12.1325
0.513196480938398,12.135
0.659824046920798,12.1375
0.562072336265902,12.14
0.464320625610899,12.1425
0.268817204301102,12.145
0.366568914955998,12.1475
0.415444770283502,12.15
0.513196480938398,12.1525
0.708699902248302,12.155
0.610948191593401,12.1575
0.415444770283502,12.16
0.317693059628499,12.1625
0.415444770283502,12.165
0.513196480938398,12.1675
0.562072336265902,12.17
0.610948191593401,12.1725
0.610948191593401,12.175
0.366568914955998,12.1775
0.317693059628499,12.18
0.415444770283502,12.1825
0.610948191593401,12.185
0.659824046920798,12.1875
0.562072336265902,12.19
0.610948191593401,12.1925
0.464320625610899,12.195
0.366568914955998,12.1975
0.415444770283502,12.2
0.610948191593401,12.2025
0.659824046920798,12.205
0.610948191593401,12.2075
0.464320625610899,12.21
0.366568914955998,12.2125
0.415444770283502,12.215
0.464320625610899,12.2175
0.708699902248302,12.22
0.659824046920798,12.2225
0.659824046920798,12.225
0.366568914955998,12.2275
0.317693059628499,12.23
0.415444770283502,12.2325
0.610948191593401,12.235
0.659824046920798,12.2375
0.610948191593401,12.24
0.513196480938398,12.2425
0.366568914955998,12.245
0.366568914955998,12.2475
0.464320625610899,12.25
0.610948191593401,12.2525
0.659824046920798,12.255
0.562072336265902,12.2575
0.464320625610899,12.26
0.268817204301102,12.2625
0.317693059628499,12.265
0.464320625610899,12.2675
0.708699902248302,12.27
0.610948191593401,12.2725
0.513196480938398,12.275
0.366568914955998,12.2775
0.268817204301102,12.28
0.366568914955998,12.2825
0.464320625610899,12.285
0.708699902248302,12.2875
0.610948191593401,12.29
0.464320625610899,12.2925
0.415444770283502,12.295
0.317693059628499,12.2975
0.415444770283502,12.3
0.610948191593401,12.3025
0.659824046920798,12.305
0.610948191593401,12.3075
0.464320625610899,12.31
0.317693059628499,12.3125
0.366568914955998,12.315
0.562072336265902,12.3175
0.562072336265902,12.32
0.659824046920798,12.3225
0.562072336265902,12.325
0.464320625610899,12.3275
0.317693059628499,12.33
0.366568914955998,12.3325
0.562072336265902,12.335
0.610948191593401,12.3375
0.610948191593401,12.34
0.513196480938398,12.3425
0.366568914955998,12.345
0.317693059628499,12.3475
0.415444770283502,12.35
0.513196480938398,12.3525
0.562072336265902,12.355
0.659824046920798,12.3575
