-0.219941348973598,8.335
-0.171065493646099,8.3375
-0.171065493646099,8.34
-0.219941348973598,8.3425
-0.366568914955998,8.345
-0.513196480938398,8.3475
-0.317693059628499,8.35
-0.0733137829911978,8.3525
0.0733137829911978,8.355
0.171065493646099,8.3575
0.122189638318702,8.36
-0.0244379276636986,8.3625
-0.122189638318702,8.365
0.0733137829911978,8.3675
0.171065493646099,8.37
0.562072336265902,8.3725
0.464320625610899,8.375
0.415444770283502,8.3775
0.122189638318702,8.38
0.171065493646099,8.3825
0.317693059628499,8.385
0.415444770283502,8.3875
0.610948191593401,8.39
0.562072336265902,8.3925
0.464320625610899,8.395
0.268817204301102,8.3975
0.317693059628499,8.4
0.415444770283502,8.4025
0.562072336265902,8.405
0.659824046920798,8.4075
0.610948191593401,8.41
0.415444770283502,8.4125
0.219941348973598,8.415
0.366568914955998,8.4175
0.464320625610899,8.42
0.513196480938398,8.4225
0.659824046920798,8.425
0.562072336265902,8.4275
0.415444770283502,8.43
0.317693059628499,8.4325
0.415444770283502,8.435
0.513196480938398,8.4375
0.708699902248302,8.44
0.659824046920798,8.4425
0.610948191593401,8.445
0.366568914955998,8.4475
0.317693059628499,8.45
0.415444770283502,8.4525
0.513196480938398,8.455
0.708699902248302,8.4575
0.610948191593401,8.46
0.464320625610899,8.4625
0.268817204301102,8.465
0.366568914955998,8.4675
0.415444770283502,8.47
0.513196480938398,8.4725
0.659824046920798,8.475
0.610948191593401,8.4775
0.464320625610899,8.48
0.366568914955998,8.4825
0.366568914955998,8.485
0.562072336265902,8.4875
0.610948191593401,8.49
0.659824046920798,8.4925
0.562072336265902,8.495
0.464320625610899,8.4975
0.317693059628499,8.5
0.415444770283502,8.5025
0.464320625610899,8.505
0.708699902248302,8.5075
0.659824046920798,8.51
0.610948191593401,8.5125
0.366568914955998,8.515
0.366568914955998,8.5175
0.464320625610899,8.52
0.610948191593401,8.5225
0.708699902248302,8.525
0.659824046920798,8.5275
0.464320625610899,8.53
0.317693059628499,8.5325
0.415444770283502,8.535
0.464320625610899,8.5375
0.708699902248302,8.54
0.757575757575801,8.5425
0.659824046920798,8.545
0.513196480938398,8.5475
0.415444770283502,8.55
0.513196480938398,8.5525
0.610948191593401,8.555
0.757575757575801,8.5575
0.757575757575801,8.56
0.806451612903198,8.5625
0.464320625610899,8.565
0.464320625610899,8.5675
0.513196480938398,8.57
0.610948191593401,8.5725
0.806451612903198,8.575
0.708699902248302,8.5775
0.513196480938398,8.58
0.464320625610899,8.5825
0.415444770283502,8.585
0.513196480938398,8.5875
0.708699902248302,8.59
0.708699902248302,8.5925
0.610948191593401,8.595
0.415444770283502,8.5975
0.219941348973598,8.6
0.366568914955998,8.6025
0.562072336265902,8.605
0.610948191593401,8.6075
0.610948191593401,8.61
0.513196480938398,8.6125
0.366568914955998,8.615
0.317693059628499,8.6175
0.415444770283502,8.62
0.610948191593401,8.6225
0.757575757575801,8.625
0.659824046920798,8.6275
0.610948191593401,8.63
0.415444770283502,8.6325
0.366568914955998,8.635
0.464320625610899,8.6375
0.659824046920798,8.64
0.659824046920798,8.6425
0.610948191593401,8.645
0.562072336265902,8.6475
0.317693059628499,8.65
0.366568914955998,8.6525
0.366568914955998,8.655
0.659824046920798,8.6575
0.659824046920798,8.66
0.562072336265902,8.6625
0.464320625610899,8.665
0.464320625610899,8.6675
0.415444770283502,8.67
0.415444770283502,8.6725
0.610948191593401,8.675
0.659824046920798,8.6775
0.562072336265902,8.68
0.366568914955998,8.6825
0.317693059628499,8.685
0.415444770283502,8.6875
0.513196480938398,8.69
0.562072336265902,8.6925
0.610948191593401,8.695
0.562072336265902,8.6975
0.415444770283502,8.7
0.317693059628499,8.7025
0.415444770283502,8.705
0.513196480938398,8.7075
0.610948191593401,8.71
0.562072336265902,8.7125
0.464320625610899,8.715
0.268817204301102,8.7175
0.366568914955998,8.72
0.415444770283502,8.7225
0.610948191593401,8.725
0.610948191593401,8.7275
0.562072336265902,8.73
0.513196480938398,8.7325
0.317693059628499,8.735
0.366568914955998,8.7375
0.464320625610899,8.74
0.708699902248302,8.7425
0.610948191593401,8.745
0.464320625610899,8.7475
0.464320625610899,8.75
0.268817204301102,8.7525
0.366568914955998,8.755
0.464320625610899,8.7575
0.610948191593401,8.76
0.610948191593401,8.7625
0.513196480938398,8.765
0.366568914955998,8.7675
0.317693059628499,8.77
0.464320625610899,8.7725
0.562072336265902,8.775
0.659824046920798,8.7775
0.562072336265902,8.78
0.513196480938398,8.7825
0.415444770283502,8.785
0.415444770283502,8.7875
0.415444770283502,8.79
0.610948191593401,8.7925
0.659824046920798,8.795
0.610948191593401,8.7975
0.366568914955998,8.8
0.317693059628499,8.8025
0.415444770283502,8.805
0.415444770283502,8.8075
0.708699902248302,8.81
0.610948191593401,8.8125
0.659824046920798,8.815
0.317693059628499,8.8175
0.366568914955998,8.82
0.464320625610899,8.8225
0.610948191593401,8.825
0.708699902248302,8.8275
0.610948191593401,8.83
0.464320625610899,8.8325
0.268817204301102,8.835
0.366568914955998,8.8375
0.513196480938398,8.84
0.610948191593401,8.8425
0.659824046920798,8.845
0.610948191593401,8.8475
0.562072336265902,8.85
0.317693059628499,8.8525
0.415444770283502,8.855
0.415444770283502,8.8575
0.610948191593401,8.86
0.659824046920798,8.8625
0.708699902248302,8.865
0.268817204301102,8.8675
0.366568914955998,8.87
0.415444770283502,8.8725
0.562072336265902,8.875
0.659824046920798,8.8775
0.659824046920798,8.88
0.610948191593401,8.8825
0.317693059628499,8.885
0.366568914955998,8.8875
0.464320625610899,8.89
0.708699902248302,8.8925
0.659824046920798,8.895
0.610948191593401,8.8975
0.415444770283502,8.9
0.268817204301102,8.9025
0.415444770283502,8.905
0.415444770283502,8.9075
0.610948191593401,8.91
0.659824046920798,8.9125
0.562072336265902,8.915
0.415444770283502,8.9175
0.415444770283502,8.92
0.415444770283502,8.9225
0.464320625610899,8.925
0.610948191593401,8.9275
0.610948191593401,8.93
0.562072336265902,8.9325
0.415444770283502,8.935
0.366568914955998,8.9375
0.415444770283502,8.94
0.610948191593401,8.9425
0.659824046920798,8.945
0.610948191593401,8.9475
0.610948191593401,8.95
0.366568914955998,8.9525
0.366568914955998,8.955
0.415444770283502,8.9575
0.708699902248302,8.96
0.659824046920798,8.9625
0.562072336265902,8.965
0.464320625610899,8.9675
0.317693059628499,8.97
0.415444770283502,8.9725
0.464320625610899,8.975
0.708699902248302,8.9775
0.659824046920798,8.98
0.562072336265902,8.9825
0.513196480938398,8.985
0.317693059628499,8.9875
0.415444770283502,8.99
0.610948191593401,8.9925
0.610948191593401,8.995
0.610948191593401,8.9975
0.562072336265902,9
0.317693059628499,9.0025
0.366568914955998,9.005
0.464320625610899,9.0075
0.562072336265902,9.01
0.659824046920798,9.0125
0.610948191593401,9.015
0.415444770283502,9.0175
0.317693059628499,9.02
0.415444770283502,9.0225
0.415444770283502,9.025
0.610948191593401,9.0275
0.659824046920798,9.03
0.562072336265902,9.0325
0.366568914955998,9.035
0.317693059628499,9.0375
0.415444770283502,9.04
0.513196480938398,9.0425
0.610948191593401,9.045
0.610948191593401,9.0475
0.562072336265902,9.05
0.415444770283502,9.0525
0.366568914955998,9.055
0.415444770283502,9.0575
0.562072336265902,9.06
0.659824046920798,9.0625
0.610948191593401,9.065
0.415444770283502,9.0675
0.415444770283502,9.07
0.415444770283502,9.0725
0.562072336265902,9.075
0.562072336265902,9.0775
0.708699902248302,9.08
0.610948191593401,9.0825
0.513196480938398,9.085
0.317693059628499,9.0875
0.415444770283502,9.09
0.464320625610899,9.0925
0.708699902248302,9.095
0.659824046920798,9.0975
0.610948191593401,9.1
0.513196480938398,9.1025
0.366568914955998,9.105
0.415444770283502,9.1075
0.562072336265902,9.11
0.610948191593401,9.1125
0.610948191593401,9.115
0.513196480938398,9.1175
0.268817204301102,9.12
0.317693059628499,9.1225
0.415444770283502,9.125
0.562072336265902,9.1275
0.610948191593401,9.13
0.513196480938398,9.1325
0.562072336265902,9.135
0.268817204301102,9.1375
0.366568914955998,9.14
0.562072336265902,9.1425
0.708699902248302,9.145
0.708699902248302,9.1475
0.610948191593401,9.15
0.415444770283502,9.1525
0.415444770283502,9.155
0.464320625610899,9.1575
0.562072336265902,9.16
0.708699902248302,9.1625
0.708699902248302,9.165
0.708699902248302,9.1675
0.513196480938398,9.17
0.415444770283502,9.1725
0.415444770283502,9.175
0.610948191593401,9.1775
0.708699902248302,9.18
0.610948191593401,9.1825
0.562072336265902,9.185
0.317693059628499,9.1875
0.415444770283502,9.19
0.415444770283502,9.1925
0.562072336265902,9.195
0.659824046920798,9.1975
0.562072336265902,9.2
0.366568914955998,9.2025
0.171065493646099,9.205
0.317693059628499,9.2075
0.268817204301102,9.21
0.317693059628499,9.2125
0.219941348973598,9.215
-0.0244379276636986,9.2175
-0.464320625610899,9.22
-0.855327468230702,9.2225
-1.0508308895406,9.225
-1.2463343108504,9.2275
-1.099706744868,9.23
-0.953079178885599,9.2325
-0.708699902248302,9.235
-0.366568914955998,9.2375
0.610948191593401,9.24
1.7350928641251,9.2425
2.663734115347,9.245
3.2991202346041,9.2475
3.494623655914,9.25
3.2991202346041,9.2525
3.0058651026393,9.255
2.663734115347,9.2575
2.1260997067449,9.26
1.8817204301075,9.2625
1.3929618768328,9.265
0.953079178885599,9.2675
0.464320625610899,9.27
0.0733137829911978,9.2725
-0.122189638318702,9.275
-0.171065493646099,9.2775
-0.0733137829911978,9.28
-0.219941348973598,9.2825
-0.268817204301102,9.285
-0.464320625610899,9.2875
-0.366568914955998,9.29
-0.268817204301102,9.2925
0.0733137829911978,9.295
0.219941348973598,9.2975
0.171065493646099,9.3
0.0733137829911978,9.3025
-0.0733137829911978,9.305
0.0244379276636986,9.3075
0.219941348973598,9.31
0.464320625610899,9.3125
0.464320625610899,9.315
0.415444770283502,9.3175
0.317693059628499,9.32
0.219941348973598,9.3225
0.219941348973598,9.325
0.366568914955998,9.3275
0.659824046920798,9.33
0.562072336265902,9.3325
0.464320625610899,9.335
0.268817204301102,9.3375
0.268817204301102,9.34
0.366568914955998,9.3425
0.415444770283502,9.345
0.659824046920798,9.3475
0.610948191593401,9.35
0.464320625610899,9.3525
0.268817204301102,9.355
0.317693059628499,9.3575
0.415444770283502,9.36
0.513196480938398,9.3625
0.659824046920798,9.365
0.610948191593401,9.3675
0.610948191593401,9.37
0.268817204301102,9.3725
0.366568914955998,9.375
0.415444770283502,9.3775
0.513196480938398,9.38
0.659824046920798,9.3825
0.562072336265902,9.385
0.513196480938398,9.3875
0.366568914955998,9.39
0.366568914955998,9.3925
0.562072336265902,9.395
0.757575757575801,9.3975
0.610948191593401,9.4
0.464320625610899,9.4025
0.317693059628499,9.405
0.317693059628499,9.4075
0.415444770283502,9.41
0.562072336265902,9.4125
0.659824046920798,9.415
0.610948191593401,9.4175
0.513196480938398,9.42
0.268817204301102,9.4225
0.366568914955998,9.425
0.464320625610899,9.4275
0.464320625610899,9.43
0.659824046920798,9.4325
0.610948191593401,9.435
0.513196480938398,9.4375
0.366568914955998,9.44
0.366568914955998,9.4425
0.366568914955998,9.445
0.659824046920798,9.4475
0.659824046920798,9.45
0.610948191593401,9.4525
0.415444770283502,9.455
0.366568914955998,9.4575
0.464320625610899,9.46
0.562072336265902,9.4625
0.806451612903198,9.465
0.659824046920798,9.4675
0.513196480938398,9.47
0.415444770283502,9.4725
0.415444770283502,9.475
0.513196480938398,9.4775
0.610948191593401,9.48
0.757575757575801,9.4825
0.659824046920798,9.485
0.562072336265902,9.4875
0.513196480938398,9.49
0.464320625610899,9.4925
0.610948191593401,9.495
0.659824046920798,9.4975
0.757575757575801,9.5
0.659824046920798,9.5025
0.562072336265902,9.505
0.513196480938398,9.5075
0.513196480938398,9.51
0.513196480938398,9.5125
0.757575757575801,9.515
0.806451612903198,9.5175
0.757575757575801,9.52
0.464320625610899,9.5225
0.464320625610899,9.525
0.513196480938398,9.5275
0.610948191593401,9.53
0.757575757575801,9.5325
0.659824046920798,9.535
0.513196480938398,9.5375
0.268817204301102,9.54
0.366568914955998,9.5425
0.464320625610899,9.545
0.562072336265902,9.5475
0.610948191593401,9.55
0.562072336265902,9.5525
0.415444770283502,9.555
0.171065493646099,9.5575
0.317693059628499,9.56
0.415444770283502,9.5625
0.562072336265902,9.565
0.610948191593401,9.5675
0.562072336265902,9.57
0.366568914955998,9.5725
0.366568914955998,9.575
0.415444770283502,9.5775
0.415444770283502,9.58
0.708699902248302,9.5825
0.659824046920798,9.585
0.659824046920798,9.5875
0.415444770283502,9.59
0.366568914955998,9.5925
0.464320625610899,9.595
0.562072336265902,9.5975
0.708699902248302,9.6
0.659824046920798,9.6025
0.610948191593401,9.605
0.268817204301102,9.6075
0.366568914955998,9.61
0.366568914955998,9.6125
0.562072336265902,9.615
0.659824046920798,9.6175
0.562072336265902,9.62
0.415444770283502,9.6225
0.268817204301102,9.625
0.366568914955998,9.6275
0.415444770283502,9.63
0.659824046920798,9.6325
0.610948191593401,9.635
0.562072336265902,9.6375
0.415444770283502,9.64
0.317693059628499,9.6425
0.366568914955998,9.645
0.415444770283502,9.6475
0.562072336265902,9.65
0.610948191593401,9.6525
0.464320625610899,9.655
0.317693059628499,9.6575
0.317693059628499,9.66
0.415444770283502,9.6625
0.562072336265902,9.665
0.659824046920798,9.6675
0.610948191593401,9.67
0.562072336265902,9.6725
0.268817204301102,9.675
0.317693059628499,9.6775
0.513196480938398,9.68
0.464320625610899,9.6825
0.610948191593401,9.685
0.562072336265902,9.6875
0.464320625610899,9.69
0.317693059628499,9.6925
0.366568914955998,9.695
0.464320625610899,9.6975
0.708699902248302,9.7
0.659824046920798,9.7025
0.513196480938398,9.705
0.317693059628499,9.7075
0.317693059628499,9.71
0.415444770283502,9.7125
0.513196480938398,9.715
0.659824046920798,9.7175
0.562072336265902,9.72
0.562072336265902,9.7225
0.366568914955998,9.725
0.366568914955998,9.7275
0.415444770283502,9.73
0.610948191593401,9.7325
0.659824046920798,9.735
0.610948191593401,9.7375
0.562072336265902,9.74
0.366568914955998,9.7425
0.366568914955998,9.745
0.415444770283502,9.7475
0.562072336265902,9.75
0.659824046920798,9.7525
0.610948191593401,9.755
0.464320625610899,9.7575
0.366568914955998,9.76
0.464320625610899,9.7625
0.513196480938398,9.765
0.708699902248302,9.7675
0.659824046920798,9.77
0.562072336265902,9.7725
0.415444770283502,9.775
0.317693059628499,9.7775
0.415444770283502,9.78
0.562072336265902,9.7825
0.659824046920798,9.785
0.562072336265902,9.7875
0.513196480938398,9.79
0.268817204301102,9.7925
0.366568914955998,9.795
0.415444770283502,9.7975
0.562072336265902,9.8
0.659824046920798,9.8025
0.610948191593401,9.805
0.366568914955998,9.8075
0.317693059628499,9.81
0.415444770283502,9.8125
0.464320625610899,9.815
0.757575757575801,9.8175
0.659824046920798,9.82
0.513196480938398,9.8225
0.415444770283502,9.825
0.317693059628499,9.8275
0.415444770283502,9.83
0.464320625610899,9.8325
0.562072336265902,9.835
0.562072336265902,9.8375
0.513196480938398,9.84
0.268817204301102,9.8425
0.317693059628499,9.845
0.415444770283502,9.8475
0.708699902248302,9.85
0.659824046920798,9.8525
0.610948191593401,9.855
0.562072336265902,9.8575
0.464320625610899,9.86
0.366568914955998,9.8625
0.464320625610899,9.865
0.610948191593401,9.8675
0.659824046920798,9.87
0.610948191593401,9.8725
0.317693059628499,9.875
0.317693059628499,9.8775
0.415444770283502,9.88
0.464320625610899,9.8825
0.708699902248302,9.885
0.659824046920798,9.8875
0.562072336265902,9.89
0.268817204301102,9.8925
0.366568914955998,9.895
0.415444770283502,9.8975
0.562072336265902,9.9
0.659824046920798,9.9025
0.659824046920798,9.905
0.562072336265902,9.9075
0.464320625610899,9.91
0.366568914955998,9.9125
0.415444770283502,9.915
0.513196480938398,9.9175
0.659824046920798,9.92
0.562072336265902,9.9225
0.366568914955998,9.925
0.415444770283502,9.9275
0.415444770283502,9.93
0.415444770283502,9.9325
0.562072336265902,9.935
0.659824046920798,9.9375
0.562072336265902,9.94
0.464320625610899,9.9425
0.366568914955998,9.945
0.415444770283502,9.9475
0.464320625610899,9.95
0.610948191593401,9.9525
0.610948191593401,9.955
0.610948191593401,9.9575
0.415444770283502,9.96
0.317693059628499,9.9625
0.415444770283502,9.965
0.610948191593401,9.9675
0.659824046920798,9.97
0.610948191593401,9.9725
0.415444770283502,9.975
0.219941348973598,9.9775
0.366568914955998,9.98
0.513196480938398,9.9825
0.610948191593401,9.985
0.659824046920798,9.9875
0.562072336265902,9.99
0.366568914955998,9.9925
0.317693059628499,9.995
0.415444770283502,9.9975
0.610948191593401,10
0.562072336265902,10.0025
0.659824046920798,10.005
0.562072336265902,10.0075
0.366568914955998,10.01
0.366568914955998,10.0125
0.415444770283502,10.015
0.513196480938398,10.0175
0.659824046920798,10.02
0.610948191593401,10.0225
0.562072336265902,10.025
0.219941348973598,10.0275
0.366568914955998,10.03
0.366568914955998,10.0325
0.513196480938398,10.035
0.708699902248302,10.0375
0.610948191593401,10.04
0.513196480938398,10.0425
0.268817204301102,10.045
0.366568914955998,10.0475
0.366568914955998,10.05
0.708699902248302,10.0525
0.659824046920798,10.055
0.513196480938398,10.0575
0.317693059628499,10.06
0.268817204301102,10.0625
0.415444770283502,10.065
0.464320625610899,10.0675
0.659824046920798,10.07
0.659824046920798,10.0725
0.708699902248302,10.075
0.317693059628499,10.0775
0.415444770283502,10.08
0.464320625610899,10.0825
0.610948191593401,10.085
0.708699902248302,10.0875
0.610948191593401,10.09
0.610948191593401,10.0925
0.464320625610899,10.095
0.415444770283502,10.0975
0.513196480938398,10.1
0.610948191593401,10.1025
0.659824046920798,10.105
0.562072336265902,10.1075
0.366568914955998,10.11
0.268817204301102,10.1125
0.366568914955998,10.115
0.513196480938398,10.1175
0.659824046920798,10.12
0.610948191593401,10.1225
0.513196480938398,10.125
0.219941348973598,10.1275
0.0244379276636986,10.13
-0.0733137829911978,10.1325
-0.0733137829911978,10.135
-0.317693059628499,10.1375
-0.610948191593401,10.14
-1.0019550342131,10.1425
-1.197458455523,10.145
-1.2952101661779,10.1475
-0.806451612903198,10.15
-0.268817204301102,10.1525
0.562072336265902,10.155
1.3929618768328,10.1575
2.3216031280547,10.16
2.9081133919844,10.1625
3.4457478005865,10.165
3.5923753665689,10.1675
3.6412512218964,10.17
3.2991202346041,10.1725
2.761485826002,10.175
1.9794721407625,10.1775
1.4907135874878,10.18
1.0508308895406,10.1825
0.708699902248302,10.185
0.513196480938398,10.1875
0.219941348973598,10.19
-0.122189638318702,10.1925
-0.464320625610899,10.195
-0.659824046920798,10.1975
-0.659824046920798,10.2
-0.562072336265902,10.2025
-0.415444770283502,10.205
-0.415444770283502,10.2075
-0.366568914955998,10.21
-0.562072336265902,10.2125
-0.366568914955998,10.215
-0.122189638318702,10.2175
0.122189638318702,10.22
0.219941348973598,10.2225
0.171065493646099,10.225
0.0244379276636986,10.2275
0.0244379276636986,10.23
0.171065493646099,10.2325
0.219941348973598,10.235
0.366568914955998,10.2375
0.513196480938398,10.24
0.415444770283502,10.2425
0.171065493646099,10.245
0.219941348973598,10.2475
0.317693059628499,10.25
0.415444770283502,10.2525
0.513196480938398,10.255
0.562072336265902,10.2575
0.415444770283502,10.26
0.317693059628499,10.2625
0.317693059628499,10.265
0.415444770283502,10.2675
0.562072336265902,10.27
0.659824046920798,10.2725
0.610948191593401,10.275
0.513196480938398,10.2775
0.219941348973598,10.28
0.366568914955998,10.2825
0.464320625610899,10.285
0.659824046920798,10.2875
0.659824046920798,10.29
0.562072336265902,10.2925
0.366568914955998,10.295
0.317693059628499,10.2975
0.415444770283502,10.3
0.464320625610899,10.3025
0.562072336265902,10.305
0.659824046920798,10.3075
0.464320625610899,10.31
0.317693059628499,10.3125
0.366568914955998,10.315
0.415444770283502,10.3175
0.562072336265902,10.32
0.659824046920798,10.3225
0.610948191593401,10.325
0.513196480938398,10.3275
0.317693059628499,10.33
0.366568914955998,10.3325
0.415444770283502,10.335
0.513196480938398,10.3375
0.659824046920798,10.34
0.562072336265902,10.3425
0.513196480938398,10.345
0.366568914955998,10.3475
0.366568914955998,10.35
0.415444770283502,10.3525
0.659824046920798,10.355
0.659824046920798,10.3575
0.513196480938398,10.36
0.317693059628499,10.3625
0.366568914955998,10.365
0.415444770283502,10.3675
0.415444770283502,10.37
0.562072336265902,10.3725
0.610948191593401,10.375
0.610948191593401,10.3775
0.415444770283502,10.38
0.366568914955998,10.3825
0.464320625610899,10.385
0.659824046920798,10.3875
0.757575757575801,10.39
0.659824046920798,10.3925
0.610948191593401,10.395
0.464320625610899,10.3975
0.415444770283502,10.4
0.610948191593401,10.4025
0.610948191593401,10.405
0.757575757575801,10.4075
0.659824046920798,10.41
0.610948191593401,10.4125
0.464320625610899,10.415
0.562072336265902,10.4175
0.659824046920798,10.42
0.953079178885599,10.4225
0.806451612903198,10.425
0.757575757575801,10.4275
0.464320625610899,10.43
0.513196480938398,10.4325
0.562072336265902,10.435
0.806451612903198,10.4375
0.806451612903198,10.44
0.757575757575801,10.4425
0.610948191593401,10.445
0.366568914955998,10.4475
0.464320625610899,10.45
0.562072336265902,10.4525
0.708699902248302,10.455
0.757575757575801,10.4575
0.659824046920798,10.46
0.415444770283502,10.4625
0.366568914955998,10.465
0.415444770283502,10.4675
0.464320625610899,10.47
0.708699902248302,10.4725
0.659824046920798,10.475
0.562072336265902,10.4775
0.415444770283502,10.48
0.317693059628499,10.4825
0.415444770283502,10.485
0.464320625610899,10.4875
0.708699902248302,10.49
0.659824046920798,10.4925
0.659824046920798,10.495
0.268817204301102,10.4975
0.317693059628499,10.5
0.415444770283502,10.5025
0.464320625610899,10.505
0.659824046920798,10.5075
0.610948191593401,10.51
0.415444770283502,10.5125
0.366568914955998,10.515
0.366568914955998,10.5175
0.415444770283502,10.52
0.562072336265902,10.5225
0.708699902248302,10.525
0.610948191593401,10.5275
0.366568914955998,10.53
0.366568914955998,10.5325
0.415444770283502,10.535
0.562072336265902,10.5375
0.610948191593401,10.54
0.659824046920798,10.5425
0.610948191593401,10.545
0.513196480938398,10.5475
0.366568914955998,10.55
0.415444770283502,10.5525
0.513196480938398,10.555
0.708699902248302,10.5575
0.562072336265902,10.56
0.464320625610899,10.5625
0.366568914955998,10.565
0.317693059628499,10.5675
0.415444770283502,10.57
0.610948191593401,10.5725
0.610948191593401,10.575
0.513196480938398,10.5775
0.366568914955998,10.58
0.415444770283502,10.5825
0.366568914955998,10.585
0.415444770283502,10.5875
0.464320625610899,10.59
0.610948191593401,10.5925
0.513196480938398,10.595
0.366568914955998,10.5975
0.317693059628499,10.6
0.366568914955998,10.6025
0.415444770283502,10.605
0.610948191593401,10.6075
0.610948191593401,10.61
0.610948191593401,10.6125
0.268817204301102,10.615
0.317693059628499,10.6175
0.464320625610899,10.62
0.513196480938398,10.6225
0.659824046920798,10.625
0.610948191593401,10.6275
0.513196480938398,10.63
0.464320625610899,10.6325
0.366568914955998,10.635
0.366568914955998,10.6375
0.513196480938398,10.64
0.659824046920798,10.6425
0.562072336265902,10.645
0.415444770283502,10.6475
0.317693059628499,10.65
0.366568914955998,10.6525
0.415444770283502,10.655
0.806451612903198,10.6575
0.659824046920798,10.66
0.610948191593401,10.6625
0.513196480938398,10.665
0.366568914955998,10.6675
0.464320625610899,10.67
0.562072336265902,10.6725
0.757575757575801,10.675
0.659824046920798,10.6775
0.464320625610899,10.68
0.464320625610899,10.6825
0.366568914955998,10.685
0.415444770283502,10.6875
0.562072336265902,10.69
0.708699902248302,10.6925
0.610948191593401,10.695
0.562072336265902,10.6975
0.219941348973598,10.7
0.366568914955998,10.7025
0.415444770283502,10.705
0.708699902248302,10.7075
0.659824046920798,10.71
0.562072336265902,10.7125
0.415444770283502,10.715
0.317693059628499,10.7175
0.366568914955998,10.72
0.464320625610899,10.7225
0.708699902248302,10.725
0.659824046920798,10.7275
0.464320625610899,10.73
0.317693059628499,10.7325
0.366568914955998,10.735
0.415444770283502,10.7375
0.610948191593401,10.74
0.659824046920798,10.7425
0.610948191593401,10.745
0.464320625610899,10.7475
0.415444770283502,10.75
0.366568914955998,10.7525
0.464320625610899,10.755
0.659824046920798,10.7575
0.659824046920798,10.76
0.610948191593401,10.7625
0.415444770283502,10.765
0.366568914955998,10.7675
0.366568914955998,10.77
0.415444770283502,10.7725
0.513196480938398,10.775
0.659824046920798,10.7775
0.562072336265902,10.78
0.268817204301102,10.7825
0.317693059628499,10.785
0.415444770283502,10.7875
0.513196480938398,10.79
0.562072336265902,10.7925
0.659824046920798,10.795
0.513196480938398,10.7975
0.464320625610899,10.8
0.366568914955998,10.8025
0.464320625610899,10.805
0.562072336265902,10.8075
0.659824046920798,10.81
0.562072336265902,10.8125
0.513196480938398,10.815
0.415444770283502,10.8175
0.366568914955998,10.82
0.415444770283502,10.8225
0.562072336265902,10.825
0.659824046920798,10.8275
0.562072336265902,10.83
0.317693059628499,10.8325
0.317693059628499,10.835
0.366568914955998,10.8375
0.464320625610899,10.84
0.610948191593401,10.8425
0.610948191593401,10.845
0.610948191593401,10.8475
0.415444770283502,10.85
0.317693059628499,10.8525
0.415444770283502,10.855
0.513196480938398,10.8575
0.659824046920798,10.86
0.659824046920798,10.8625
0.513196480938398,10.865
0.415444770283502,10.8675
0.415444770283502,10.87
0.464320625610899,10.8725
0.659824046920798,10.875
0.708699902248302,10.8775
0.562072336265902,10.88
0.562072336265902,10.8825
0.317693059628499,10.885
0.366568914955998,10.8875
0.415444770283502,10.89
0.708699902248302,10.8925
0.659824046920798,10.895
0.659824046920798,10.8975
0.268817204301102,10.9
0.268817204301102,10.9025
0.317693059628499,10.905
0.415444770283502,10.9075
0.659824046920798,10.91
0.562072336265902,10.9125
0.562072336265902,10.915
0.415444770283502,10.9175
0.317693059628499,10.92
0.415444770283502,10.9225
0.562072336265902,10.925
0.659824046920798,10.9275
0.610948191593401,10.93
0.610948191593401,10.9325
0.415444770283502,10.935
0.415444770283502,10.9375
0.415444770283502,10.94
0.708699902248302,10.9425
0.659824046920798,10.945
0.610948191593401,10.9475
0.464320625610899,10.95
0.366568914955998,10.9525
0.415444770283502,10.955
0.464320625610899,10.9575
0.659824046920798,10.96
0.659824046920798,10.9625
0.659824046920798,10.965
0.366568914955998,10.9675
0.366568914955998,10.97
0.464320625610899,10.9725
0.464320625610899,10.975
0.708699902248302,10.9775
0.610948191593401,10.98
0.562072336265902,10.9825
0.219941348973598,10.985
0.268817204301102,10.9875
0.219941348973598,10.99
0.268817204301102,10.9925
0.0733137829911978,10.995
-0.268817204301102,10.9975
-0.708699902248302,11
-0.953079178885599,11.0025
-1.197458455523,11.005
-1.1485826001955,11.0075
-0.708699902248302,11.01
-0.464320625610899,11.0125
-0.0244379276636986,11.015
0.659824046920798,11.0175
1.5884652981427,11.02
2.5171065493646,11.0225
3.1524926686217,11.025
3.6412512218964,11.0275
3.5923753665689,11.03
3.1524926686217,11.0325
2.6148582600196,11.035
2.1749755620723,11.0375
1.6862170087977,11.04
1.2952101661779,11.0425
1.0019550342131,11.045
0.610948191593401,11.0475
0.122189638318702,11.05
-0.171065493646099,11.0525
-0.415444770283502,11.055
-0.464320625610899,11.0575
-0.464320625610899,11.06
-0.268817204301102,11.0625
-0.317693059628499,11.065
-0.513196480938398,11.0675
-0.464320625610899,11.07
-0.317693059628499,11.0725
-0.171065493646099,11.075
0.0733137829911978,11.0775
0.171065493646099,11.08
0.219941348973598,11.0825
0.122189638318702,11.085
0.0244379276636986,11.0875
0.171065493646099,11.09
0.268817204301102,11.0925
0.513196480938398,11.095
0.464320625610899,11.0975
0.513196480938398,11.1
0.171065493646099,11.1025
0.268817204301102,11.105
0.366568914955998,11.1075
0.464320625610899,11.11
0.610948191593401,11.1125
0.513196480938398,11.115
0.415444770283502,11.1175
0.268817204301102,11.12
0.366568914955998,11.1225
0.415444770283502,11.125
0.562072336265902,11.1275
0.610948191593401,11.13
0.562072336265902,11.1325
0.415444770283502,11.135
0.268817204301102,11.1375
0.415444770283502,11.14
0.513196480938398,11.1425
0.562072336265902,11.145
0.659824046920798,11.1475
0.513196480938398,11.15
0.268817204301102,11.1525
0.317693059628499,11.155
0.415444770283502,11.1575
0.610948191593401,11.16
0.708699902248302,11.1625
0.610948191593401,11.165
0.513196480938398,11.1675
0.268817204301102,11.17
0.366568914955998,11.1725
0.513196480938398,11.175
0.610948191593401,11.1775
0.659824046920798,11.18
0.562072336265902,11.1825
0.562072336265902,11.185
0.317693059628499,11.1875
0.415444770283502,11.19
0.513196480938398,11.1925
0.562072336265902,11.195
0.659824046920798,11.1975
0.610948191593401,11.2
0.268817204301102,11.2025
0.317693059628499,11.205
0.415444770283502,11.2075
0.513196480938398,11.21
0.610948191593401,11.2125
0.610948191593401,11.215
0.464320625610899,11.2175
0.317693059628499,11.22
0.366568914955998,11.2225
0.415444770283502,11.225
0.610948191593401,11.2275
0.659824046920798,11.23
0.659824046920798,11.2325
0.513196480938398,11.235
0.415444770283502,11.2375
0.415444770283502,11.24
0.464320625610899,11.2425
0.806451612903198,11.245
0.708699902248302,11.2475
0.659824046920798,11.25
0.513196480938398,11.2525
0.415444770283502,11.255
0.464320625610899,11.2575
0.659824046920798,11.26
0.708699902248302,11.2625
0.757575757575801,11.265
0.610948191593401,11.2675
0.610948191593401,11.27
0.464320625610899,11.2725
0.562072336265902,11.275
0.708699902248302,11.2775
0.806451612903198,11.28
0.757575757575801,11.2825
0.708699902248302,11.285
0.366568914955998,11.2875
0.513196480938398,11.29
0.562072336265902,11.2925
0.806451612903198,11.295
0.806451612903198,11.2975
0.708699902248302,11.3
0.610948191593401,11.3025
0.513196480938398,11.305
0.464320625610899,11.3075
0.562072336265902,11.31
0.562072336265902,11.3125
0.659824046920798,11.315
0.610948191593401,11.3175
0.366568914955998,11.32
0.317693059628499,11.3225
0.415444770283502,11.325
0.610948191593401,11.3275
0.659824046920798,11.33
0.610948191593401,11.3325
0.562072336265902,11.335
0.415444770283502,11.3375
0.317693059628499,11.34
0.415444770283502,11.3425
0.562072336265902,11.345
0.659824046920798,11.3475
0.610948191593401,11.35
0.415444770283502,11.3525
0.219941348973598,11.355
0.366568914955998,11.3575
0.464320625610899,11.36
0.610948191593401,11.3625
0.708699902248302,11.365
0.610948191593401,11.3675
0.415444770283502,11.37
0.317693059628499,11.3725
0.415444770283502,11.375
0.415444770283502,11.3775
0.708699902248302,11.38
0.659824046920798,11.3825
0.513196480938398,11.385
0.513196480938398,11.3875
0.366568914955998,11.39
0.415444770283502,11.3925
0.562072336265902,11.395
0.757575757575801,11.3975
0.659824046920798,11.4
0.464320625610899,11.4025
0.268817204301102,11.405
0.366568914955998,11.4075
0.464320625610899,11.41
0.708699902248302,11.4125
0.659824046920798,11.415
0.562072336265902,11.4175
0.415444770283502,11.42
0.317693059628499,11.4225
0.366568914955998,11.425
0.366568914955998,11.4275
0.610948191593401,11.43
0.610948191593401,11.4325
0.513196480938398,11.435
0.317693059628499,11.4375
0.268817204301102,11.44
0.366568914955998,11.4425
0.464320625610899,11.445
0.757575757575801,11.4475
0.610948191593401,11.45
0.415444770283502,11.4525
0.268817204301102,11.455
0.317693059628499,11.4575
0.415444770283502,11.46
0.513196480938398,11.4625
0.659824046920798,11.465
0.562072336265902,11.4675
0.366568914955998,11.47
0.366568914955998,11.4725
0.317693059628499,11.475
0.317693059628499,11.4775
0.513196480938398,11.48
0.659824046920798,11.4825
0.562072336265902,11.485
0.366568914955998,11.4875
0.317693059628499,11.49
0.366568914955998,11.4925
0.464320625610899,11.495
0.659824046920798,11.4975
0.659824046920798,11.5
0.659824046920798,11.5025
0.513196480938398,11.505
0.317693059628499,11.5075
0.415444770283502,11.51
0.513196480938398,11.5125
0.659824046920798,11.515
0.610948191593401,11.5175
0.562072336265902,11.52
0.219941348973598,11.5225
0.366568914955998,11.525
0.464320625610899,11.5275
0.757575757575801,11.53
0.708699902248302,11.5325
0.610948191593401,11.535
0.415444770283502,11.5375
0.317693059628499,11.54
0.366568914955998,11.5425
0.513196480938398,11.545
0.806451612903198,11.5475
0.659824046920798,11.55
0.562072336265902,11.5525
0.513196480938398,11.555
0.317693059628499,11.5575
0.415444770283502,11.56
0.610948191593401,11.5625
0.610948191593401,11.565
0.610948191593401,11.5675
0.562072336265902,11.57
0.366568914955998,11.5725
0.366568914955998,11.575
0.415444770283502,11.5775
0.562072336265902,11.58
0.659824046920798,11.5825
0.659824046920798,11.585
0.562072336265902,11.5875
0.268817204301102,11.59
0.415444770283502,11.5925
0.464320625610899,11.595
0.659824046920798,11.5975
0.659824046920798,11.6
0.610948191593401,11.6025
0.415444770283502,11.605
0.268817204301102,11.6075
0.415444770283502,11.61
0.415444770283502,11.6125
0.659824046920798,11.615
0.659824046920798,11.6175
0.708699902248302,11.62
0.464320625610899,11.6225
0.317693059628499,11.625
0.415444770283502,11.6275
0.415444770283502,11.63
0.562072336265902,11.6325
0.610948191593401,11.635
0.562072336265902,11.6375
0.268817204301102,11.64
0.366568914955998,11.6425
0.464320625610899,11.645
0.659824046920798,11.6475
0.708699902248302,11.65
0.610948191593401,11.6525
0.562072336265902,11.655
0.415444770283502,11.6575
0.366568914955998,11.66
0.415444770283502,11.6625
0.513196480938398,11.665
0.659824046920798,11.6675
0.562072336265902,11.67
0.464320625610899,11.6725
0.317693059628499,11.675
0.415444770283502,11.6775
0.464320625610899,11.68
0.610948191593401,11.6825
0.610948191593401,11.685
0.708699902248302,11.6875
0.366568914955998,11.69
0.317693059628499,11.6925
0.415444770283502,11.695
0.562072336265902,11.6975
0.659824046920798,11.7
0.610948191593401,11.7025
0.415444770283502,11.705
0.268817204301102,11.7075
0.317693059628499,11.71
0.513196480938398,11.7125
0.513196480938398,11.715
0.659824046920798,11.7175
0.562072336265902,11.72
0.464320625610899,11.7225
0.415444770283502,11.725
0.366568914955998,11.7275
0.317693059628499,11.73
0.513196480938398,11.7325
0.610948191593401,11.735
0.464320625610899,11.7375
0.366568914955998,11.74
0.268817204301102,11.7425
0.415444770283502,11.745
0.562072336265902,11.7475
0.806451612903198,11.75
0.659824046920798,11.7525
0.513196480938398,11.755
0.464320625610899,11.7575
0.415444770283502,11.76
0.513196480938398,11.7625
0.708699902248302,11.765
0.757575757575801,11.7675
0.659824046920798,11.77
0.659824046920798,11.7725
0.513196480938398,11.775
0.415444770283502,11.7775
0.513196480938398,11.78
0.708699902248302,11.7825
0.708699902248302,11.785
0.610948191593401,11.7875
0.464320625610899,11.79
0.317693059628499,11.7925
0.415444770283502,11.795
0.513196480938398,11.7975
0.659824046920798,11.8
0.610948191593401,11.8025
0.610948191593401,11.805
0.415444770283502,11.8075
0.268817204301102,11.81
0.317693059628499,11.8125
0.317693059628499,11.815
0.317693059628499,11.8175
0.171065493646099,11.82
-0.219941348973598,11.8225
-0.513196480938398,11.825
-0.806451612903198,11.8275
-0.855327468230702,11.83
-0.953079178885599,11.8325
-0.757575757575801,11.835
-0.562072336265902,11.8375
-0.317693059628499,11.84
0.219941348973598,11.8425
1.197458455523,11.845
2.1749755620723,11.8475
3.0058651026393,11.85
3.4457478005865,11.8525
3.4457478005865,11.855
3.2013685239492,11.8575
2.761485826002,11.86
2.3704789833822,11.8625
1.8817204301075,11.865
1.5395894428152,11.8675
1.0508308895406,11.87
0.659824046920798,11.8725
0.122189638318702,11.875
-0.219941348973598,11.8775
-0.317693059628499,11.88
-0.268817204301102,11.8825
-0.268817204301102,11.885
-0.366568914955998,11.8875
-0.513196480938398,11.89
-0.513196480938398,11.8925
-0.415444770283502,11.895
-0.317693059628499,11.8975
-0.0733137829911978,11.9
0.122189638318702,11.9025
0.0733137829911978,11.905
0.0733137829911978,11.9075
-0.0733137829911978,11.91
0.0733137829911978,11.9125
0.171065493646099,11.915
0.415444770283502,11.9175
0.415444770283502,11.92
0.317693059628499,11.9225
0.219941348973598,11.925
0.219941348973598,11.9275
0.317693059628499,11.93
0.562072336265902,11.9325
0.513196480938398,11.935
0.562072336265902,11.9375
0.415444770283502,11.94
0.415444770283502,11.9425
0.317693059628499,11.945
0.415444770283502,11.9475
0.513196480938398,11.95
0.659824046920798,11.9525
0.610948191593401,11.955
0.415444770283502,11.9575
0.268817204301102,11.96
0.366568914955998,11.9625
0.366568914955998,11.965
0.610948191593401,11.9675
0.659824046920798,11.97
0.562072336265902,11.9725
0.415444770283502,11.975
0.366568914955998,11.9775
0.415444770283502,11.98
0.562072336265902,11.9825
0.708699902248302,11.985
0.659824046920798,11.9875
0.659824046920798,11.99
0.415444770283502,11.9925
0.366568914955998,11.995
0.415444770283502,11.9975
0.610948191593401,12
0.659824046920798,12.0025
0.610948191593401,12.005
0.659824046920798,12.0075
0.268817204301102,12.01
0.366568914955998,12.0125
0.366568914955998,12.015
0.562072336265902,12.0175
0.659824046920798,12.02
0.610948191593401,12.0225
0.366568914955998,12.025
0.317693059628499,12.0275
0.366568914955998,12.03
0.415444770283502,12.0325
0.708699902248302,12.035
0.659824046920798,12.0375
0.562072336265902,12.04
0.415444770283502,12.0425
0.366568914955998,12.045
0.464320625610899,12.0475
0.513196480938398,12.05
0.806451612903198,12.0525
0.659824046920798,12.055
0.659824046920798,12.0575
0.366568914955998,12.06
0.415444770283502,12.0625
0.513196480938398,12.065
0.806451612903198,12.0675
0.757575757575801,12.07
0.659824046920798,12.0725
0.610948191593401,12.075
0.366568914955998,12.0775
0.464320625610899,12.08
0.562072336265902,12.0825
0.708699902248302,12.085
0.757575757575801,12.0875
0.659824046920798,12.09
0.513196480938398,12.0925
0.415444770283502,12.095
0.513196480938398,12.0975
0.610948191593401,12.1
0.757575757575801,12.1025
0.757575757575801,12.105
0.806451612903198,12.1075
0.464320625610899,12.11
0.464320625610899,12.1125
0.562072336265902,12.115
0.659824046920798,12.1175
0.806451612903198,12.12
0.708699902248302,12.1225
0.610948191593401,12.125
0.464320625610899,12.1275
0.415444770283502,12.13
0.415444770283502,12.1325
0.513196480938398,12.135
0.659824046920798,12.1375
0.562072336265902,12.14
0.464320625610899,12.1425
0.268817204301102,12.145
0.366568914955998,12.1475
0.415444770283502,12.15
0.513196480938398,12.1525
0.708699902248302,12.155
0.610948191593401,12.1575
0.415444770283502,12.16
0.317693059628499,12.1625
0.415444770283502,12.165
0.513196480938398,12.1675
0.562072336265902,12.17
0.610948191593401,12.1725
0.610948191593401,12.175
0.366568914955998,12.1775
0.317693059628499,12.18
0.415444770283502,12.1825
0.610948191593401,12.185
0.659824046920798,12.1875
0.562072336265902,12.19
0.610948191593401,12.1925
0.464320625610899,12.195
0.366568914955998,12.1975
0.415444770283502,12.2
0.610948191593401,12.2025
0.659824046920798,12.205
0.610948191593401,12.2075
0.464320625610899,12.21
0.366568914955998,12.2125
0.415444770283502,12.215
0.464320625610899,12.2175
0.708699902248302,12.22
0.659824046920798,12.2225
0.659824046920798,12.225
0.366568914955998,12.2275
0.317693059628499,12.23
0.415444770283502,12.2325
0.610948191593401,12.235
0.659824046920798,12.2375
0.610948191593401,12.24
0.513196480938398,12.2425
0.366568914955998,12.245
0.366568914955998,12.2475
0.464320625610899,12.25
0.610948191593401,12.2525
0.659824046920798,12.255
0.562072336265902,12.2575
0.464320625610899,12.26
0.268817204301102,12.2625
0.317693059628499,12.265
0.464320625610899,12.2675
0.708699902248302,12.27
0.610948191593401,12.2725
0.513196480938398,12.275
0.366568914955998,12.2775
0.268817204301102,12.28
0.366568914955998,12.2825
0.464320625610899,12.285
0.708699902248302,12.2875
0.610948191593401,12.29
0.464320625610899,12.2925
0.415444770283502,12.295
0.317693059628499,12.2975
0.415444770283502,12.3
0.610948191593401,12.3025
0.659824046920798,12.305
0.610948191593401,12.3075
0.464320625610899,12.31
0.317693059628499,12.3125
0.366568914955998,12.315
0.562072336265902,12.3175
0.562072336265902,12.32
0.659824046920798,12.3225
0.562072336265902,12.325
0.464320625610899,12.3275
0.317693059628499,12.33
0.366568914955998,12.3325
0.562072336265902,12.335
0.610948191593401,12.3375
0.610948191593401,12.34
0.513196480938398,12.3425
0.366568914955998,12.345
0.317693059628499,12.3475
0.415444770283502,12.35
0.513196480938398,12.3525
0.562072336265902,12.355
0.659824046920798,12.3575
0.562072336265902,12.36
0.268817204301102,12.3625
0.415444770283502,12.365
0.464320625610899,12.3675
0.708699902248302,12.37
0.708699902248302,12.3725
0.610948191593401,12.375
0.513196480938398,12.3775
0.317693059628499,12.38
0.366568914955998,12.3825
0.317693059628499,12.385
0.659824046920798,12.3875
0.659824046920798,12.39
0.562072336265902,12.3925
0.415444770283502,12.395
0.366568914955998,12.3975
0.415444770283502,12.4
0.513196480938398,12.4025
0.708699902248302,12.405
0.610948191593401,12.4075
0.562072336265902,12.41
0.366568914955998,12.4125
0.366568914955998,12.415
0.415444770283502,12.4175
0.610948191593401,12.42
0.708699902248302,12.4225
0.610948191593401,12.425
0.562072336265902,12.4275
0.366568914955998,12.43
0.415444770283502,12.4325
0.366568914955998,12.435
0.757575757575801,12.4375
0.708699902248302,12.44
0.562072336265902,12.4425
0.415444770283502,12.445
0.317693059628499,12.4475
0.415444770283502,12.45
0.464320625610899,12.4525
0.562072336265902,12.455
0.610948191593401,12.4575
0.659824046920798,12.46
0.464320625610899,12.4625
0.317693059628499,12.465
0.415444770283502,12.4675
0.464320625610899,12.47
0.659824046920798,12.4725
0.659824046920798,12.475
0.513196480938398,12.4775
0.415444770283502,12.48
0.366568914955998,12.4825
0.464320625610899,12.485
0.659824046920798,12.4875
0.659824046920798,12.49
0.562072336265902,12.4925
0.464320625610899,12.495
0.219941348973598,12.4975
0.366568914955998,12.5
0.317693059628499,12.5025
0.610948191593401,12.505
0.659824046920798,12.5075
0.562072336265902,12.51
0.513196480938398,12.5125
0.366568914955998,12.515
0.415444770283502,12.5175
0.464320625610899,12.52
0.610948191593401,12.5225
0.659824046920798,12.525
0.562072336265902,12.5275
0.317693059628499,12.53
0.317693059628499,12.5325
0.415444770283502,12.535
0.562072336265902,12.5375
0.659824046920798,12.54
0.562072336265902,12.5425
0.415444770283502,12.545
0.415444770283502,12.5475
0.317693059628499,12.55
0.268817204301102,12.5525
0.610948191593401,12.555
0.610948191593401,12.5575
0.562072336265902,12.56
0.366568914955998,12.5625
0.366568914955998,12.565
0.366568914955998,12.5675
0.415444770283502,12.57
0.708699902248302,12.5725
0.708699902248302,12.575
0.659824046920798,12.5775
0.317693059628499,12.58
0.415444770283502,12.5825
0.464320625610899,12.585
0.562072336265902,12.5875
0.659824046920798,12.59
0.659824046920798,12.5925
0.610948191593401,12.595
0.366568914955998,12.5975
0.366568914955998,12.6
0.464320625610899,12.6025
0.610948191593401,12.605
0.708699902248302,12.6075
0.610948191593401,12.61
0.464320625610899,12.6125
0.268817204301102,12.615
0.366568914955998,12.6175
0.464320625610899,12.62
0.513196480938398,12.6225
0.659824046920798,12.625
0.562072336265902,12.6275
0.317693059628499,12.63
0.268817204301102,12.6325
0.268817204301102,12.635
0.317693059628499,12.6375
0.268817204301102,12.64
0.122189638318702,12.6425
-0.0733137829911978,12.645
-0.562072336265902,12.6475
-0.904203323558201,12.65
-1.0019550342131,12.6525
-0.953079178885599,12.655
-0.708699902248302,12.6575
-0.415444770283502,12.66
0.122189638318702,12.6625
0.562072336265902,12.665
1.4907135874878,12.6675
2.5659824046921,12.67
3.2013685239492,12.6725
3.5923753665689,12.675
3.494623655914,12.6775
3.2991202346041,12.68
2.6148582600196,12.6825
2.2727272727273,12.685
1.7839687194526,12.6875
1.3929618768328,12.69
1.0508308895406,12.6925
0.562072336265902,12.695
0.0733137829911978,12.6975
-0.219941348973598,12.7
-0.366568914955998,12.7025
-0.366568914955998,12.705
-0.219941348973598,12.7075
-0.366568914955998,12.71
-0.317693059628499,12.7125
-0.464320625610899,12.715
-0.513196480938398,12.7175
-0.366568914955998,12.72
-0.0244379276636986,12.7225
0.0733137829911978,12.725
0.0733137829911978,12.7275
0.0733137829911978,12.73
-0.171065493646099,12.7325
-0.0244379276636986,12.735
0.122189638318702,12.7375
0.268817204301102,12.74
0.415444770283502,12.7425
0.366568914955998,12.745
0.317693059628499,12.7475
0.219941348973598,12.75
0.317693059628499,12.7525
0.317693059628499,12.755
0.708699902248302,12.7575
0.562072336265902,12.76
0.513196480938398,12.7625
0.464320625610899,12.765
0.268817204301102,12.7675
0.366568914955998,12.77
0.562072336265902,12.7725
0.610948191593401,12.775
0.610948191593401,12.7775
0.464320625610899,12.78
0.415444770283502,12.7825
0.366568914955998,12.785
0.464320625610899,12.7875
0.513196480938398,12.79
0.610948191593401,12.7925
0.562072336265902,12.795
0.415444770283502,12.7975
0.366568914955998,12.8
0.366568914955998,12.8025
0.562072336265902,12.805
0.757575757575801,12.8075
0.708699902248302,12.81
0.610948191593401,12.8125
0.415444770283502,12.815
0.317693059628499,12.8175
0.415444770283502,12.82
0.513196480938398,12.8225
0.659824046920798,12.825
0.610948191593401,12.8275
0.513196480938398,12.83
0.415444770283502,12.8325
0.317693059628499,12.835
0.415444770283502,12.8375
0.562072336265902,12.84
0.659824046920798,12.8425
0.610948191593401,12.845
0.513196480938398,12.8475
0.415444770283502,12.85
0.415444770283502,12.8525
0.610948191593401,12.855
0.610948191593401,12.8575
0.708699902248302,12.86
0.610948191593401,12.8625
0.610948191593401,12.865
0.268817204301102,12.8675
0.415444770283502,12.87
0.415444770283502,12.8725
0.562072336265902,12.875
0.610948191593401,12.8775
0.513196480938398,12.88
0.317693059628499,12.8825
0.366568914955998,12.885
0.464320625610899,12.8875
0.562072336265902,12.89
0.855327468230702,12.8925
0.708699902248302,12.895
0.659824046920798,12.8975
0.317693059628499,12.9
0.415444770283502,12.9025
0.513196480938398,12.905
0.659824046920798,12.9075
0.757575757575801,12.91
0.708699902248302,12.9125
0.513196480938398,12.915
0.415444770283502,12.9175
0.464320625610899,12.92
0.659824046920798,12.9225
0.757575757575801,12.925
0.806451612903198,12.9275
0.708699902248302,12.93
0.513196480938398,12.9325
0.464320625610899,12.935
0.562072336265902,12.9375
0.708699902248302,12.94
0.708699902248302,12.9425
0.757575757575801,12.945
0.562072336265902,12.9475
0.513196480938398,12.95
0.415444770283502,12.9525
0.464320625610899,12.955
0.659824046920798,12.9575
0.659824046920798,12.96
0.610948191593401,12.9625
0.610948191593401,12.965
0.366568914955998,12.9675
0.366568914955998,12.97
0.317693059628499,12.9725
0.464320625610899,12.975
0.659824046920798,12.9775
0.562072336265902,12.98
0.513196480938398,12.9825
0.317693059628499,12.985
0.366568914955998,12.9875
0.464320625610899,12.99
0.610948191593401,12.9925
0.610948191593401,12.995
0.562072336265902,12.9975
0.513196480938398,13
0.317693059628499,13.0025
0.464320625610899,13.005
0.464320625610899,13.0075
0.708699902248302,13.01
0.659824046920798,13.0125
0.464320625610899,13.015
0.464320625610899,13.0175
0.317693059628499,13.02
0.415444770283502,13.0225
0.562072336265902,13.025
0.708699902248302,13.0275
0.610948191593401,13.03
0.513196480938398,13.0325
0.415444770283502,13.035
0.366568914955998,13.0375
0.562072336265902,13.04
0.562072336265902,13.0425
0.659824046920798,13.045
0.562072336265902,13.0475
0.415444770283502,13.05
0.317693059628499,13.0525
0.366568914955998,13.055
0.562072336265902,13.0575
0.610948191593401,13.06
0.610948191593401,13.0625
0.513196480938398,13.065
0.219941348973598,13.0675
0.317693059628499,13.07
0.366568914955998,13.0725
0.513196480938398,13.075
0.610948191593401,13.0775
0.610948191593401,13.08
0.610948191593401,13.0825
0.415444770283502,13.085
0.317693059628499,13.0875
0.415444770283502,13.09
0.464320625610899,13.0925
0.659824046920798,13.095
0.562072336265902,13.0975
0.415444770283502,13.1
0.415444770283502,13.1025
0.366568914955998,13.105
0.464320625610899,13.1075
0.708699902248302,13.11
0.659824046920798,13.1125
0.562072336265902,13.115
0.415444770283502,13.1175
0.317693059628499,13.12
0.366568914955998,13.1225
0.464320625610899,13.125
0.610948191593401,13.1275
0.610948191593401,13.13
0.464320625610899,13.1325
0.464320625610899,13.135
0.317693059628499,13.1375
0.415444770283502,13.14
0.513196480938398,13.1425
0.708699902248302,13.145
0.610948191593401,13.1475
0.562072336265902,13.15
0.219941348973598,13.1525
0.366568914955998,13.155
0.366568914955998,13.1575
0.610948191593401,13.16
0.659824046920798,13.1625
0.562072336265902,13.165
0.415444770283502,13.1675
0.317693059628499,13.17
0.415444770283502,13.1725
0.464320625610899,13.175
0.610948191593401,13.1775
0.659824046920798,13.18
0.659824046920798,13.1825
0.317693059628499,13.185
0.366568914955998,13.1875
0.415444770283502,13.19
0.513196480938398,13.1925
0.757575757575801,13.195
0.659824046920798,13.1975
0.708699902248302,13.2
0.415444770283502,13.2025
0.366568914955998,13.205
0.464320625610899,13.2075
0.513196480938398,13.21
0.708699902248302,13.2125
0.610948191593401,13.215
0.464320625610899,13.2175
0.415444770283502,13.22
0.415444770283502,13.2225
0.415444770283502,13.225
0.806451612903198,13.2275
0.659824046920798,13.23
0.610948191593401,13.2325
0.415444770283502,13.235
0.317693059628499,13.2375
0.415444770283502,13.24
0.513196480938398,13.2425
0.806451612903198,13.245
0.659824046920798,13.2475
0.562072336265902,13.25
0.464320625610899,13.2525
0.366568914955998,13.255
0.415444770283502,13.2575
0.562072336265902,13.26
0.708699902248302,13.2625
0.610948191593401,13.265
0.562072336265902,13.2675
0.366568914955998,13.27
0.366568914955998,13.2725
0.464320625610899,13.275
0.610948191593401,13.2775
0.659824046920798,13.28
0.610948191593401,13.2825
0.562072336265902,13.285
0.366568914955998,13.2875
0.415444770283502,13.29
0.464320625610899,13.2925
0.659824046920798,13.295
0.659824046920798,13.2975
0.708699902248302,13.3
0.366568914955998,13.3025
0.317693059628499,13.305
0.415444770283502,13.3075
0.464320625610899,13.31
0.610948191593401,13.3125
0.610948191593401,13.315
0.562072336265902,13.3175
0.415444770283502,13.32
0.366568914955998,13.3225
0.464320625610899,13.325
0.562072336265902,13.3275
0.708699902248302,13.33
0.610948191593401,13.3325
0.610948191593401,13.335
0.366568914955998,13.3375
0.366568914955998,13.34
0.513196480938398,13.3425
0.610948191593401,13.345
0.659824046920798,13.3475
0.562072336265902,13.35
0.366568914955998,13.3525
0.317693059628499,13.355
0.366568914955998,13.3575
0.415444770283502,13.36
0.513196480938398,13.3625
0.610948191593401,13.365
0.610948191593401,13.3675
0.219941348973598,13.37
0.317693059628499,13.3725
0.415444770283502,13.375
0.513196480938398,13.3775
0.659824046920798,13.38
0.610948191593401,13.3825
0.562072336265902,13.385
0.415444770283502,13.3875
0.415444770283502,13.39
0.562072336265902,13.3925
0.610948191593401,13.395
0.757575757575801,13.3975
0.659824046920798,13.4
0.562072336265902,13.4025
0.317693059628499,13.405
0.464320625610899,13.4075
0.562072336265902,13.41
0.562072336265902,13.4125
0.708699902248302,13.415
0.708699902248302,13.4175
0.317693059628499,13.42
0.317693059628499,13.4225
0.415444770283502,13.425
0.513196480938398,13.4275
0.659824046920798,13.43
0.610948191593401,13.4325
0.513196480938398,13.435
0.415444770283502,13.4375
0.317693059628499,13.44
0.415444770283502,13.4425
0.464320625610899,13.445
0.562072336265902,13.4475
0.415444770283502,13.45
0.122189638318702,13.4525
-0.171065493646099,13.455
-0.366568914955998,13.4575
-0.708699902248302,13.46
-0.708699902248302,13.4625
-0.855327468230702,13.465
-1.0508308895406,13.4675
-1.099706744868,13.47
-0.806451612903198,13.4725
-0.268817204301102,13.475
0.708699902248302,13.4775
1.8328445747801,13.48
2.6148582600196,13.4825
3.1036168132942,13.485
3.2991202346041,13.4875
3.2013685239492,13.49
3.1036168132942,13.4925
2.9569892473118,13.495
2.5659824046921,13.4975
1.9794721407625,13.5
1.4907135874878,13.5025
0.708699902248302,13.505
0.366568914955998,13.5075
0.171065493646099,13.51
0.0733137829911978,13.5125
-0.122189638318702,13.515
-0.317693059628499,13.5175
-0.415444770283502,13.52
-0.659824046920798,13.5225
-0.513196480938398,13.525
-0.366568914955998,13.5275
-0.219941348973598,13.53
-0.0733137829911978,13.5325
-0.0733137829911978,13.535
-0.219941348973598,13.5375
-0.171065493646099,13.54
-0.0244379276636986,13.5425
0.122189638318702,13.545
0.366568914955998,13.5475
0.366568914955998,13.55
0.366568914955998,13.5525
0.0733137829911978,13.555
0.171065493646099,13.5575
0.268817204301102,13.56
0.415444770283502,13.5625
0.562072336265902,13.565
0.513196480938398,13.5675
0.317693059628499,13.57
0.317693059628499,13.5725
0.317693059628499,13.575
0.317693059628499,13.5775
0.610948191593401,13.58
0.659824046920798,13.5825
0.562072336265902,13.585
0.562072336265902,13.5875
0.366568914955998,13.59
0.366568914955998,13.5925
0.415444770283502,13.595
0.610948191593401,13.5975
0.610948191593401,13.6
0.708699902248302,13.6025
0.317693059628499,13.605
0.317693059628499,13.6075
0.415444770283502,13.61
0.464320625610899,13.6125
0.659824046920798,13.615
0.659824046920798,13.6175
0.610948191593401,13.62
0.268817204301102,13.6225
0.317693059628499,13.625
0.415444770283502,13.6275
0.659824046920798,13.63
0.659824046920798,13.6325
0.562072336265902,13.635
0.464320625610899,13.6375
0.415444770283502,13.64
0.415444770283502,13.6425
0.464320625610899,13.645
0.806451612903198,13.6475
0.708699902248302,13.65
0.562072336265902,13.6525
0.464320625610899,13.655
0.317693059628499,13.6575
0.415444770283502,13.66
0.464320625610899,13.6625
0.757575757575801,13.665
0.659824046920798,13.6675
0.464320625610899,13.67
0.268817204301102,13.6725
0.366568914955998,13.675
0.415444770283502,13.6775
0.610948191593401,13.68
0.659824046920798,13.6825
0.610948191593401,13.685
0.513196480938398,13.6875
0.366568914955998,13.69
0.366568914955998,13.6925
0.464320625610899,13.695
0.610948191593401,13.6975
0.708699902248302,13.7
0.610948191593401,13.7025
0.415444770283502,13.705
0.464320625610899,13.7075
0.464320625610899,13.71
0.464320625610899,13.7125
0.757575757575801,13.715
0.708699902248302,13.7175
0.757575757575801,13.72
0.415444770283502,13.7225
0.464320625610899,13.725
0.513196480938398,13.7275
0.659824046920798,13.73
0.708699902248302,13.7325
0.757575757575801,13.735
0.757575757575801,13.7375
0.562072336265902,13.74
0.513196480938398,13.7425
0.610948191593401,13.745
0.806451612903198,13.7475
0.806451612903198,13.75
0.757575757575801,13.7525
0.659824046920798,13.755
0.659824046920798,13.7575
0.464320625610899,13.76
0.513196480938398,13.7625
0.610948191593401,13.765
0.708699902248302,13.7675
0.610948191593401,13.77
0.464320625610899,13.7725
0.366568914955998,13.775
0.415444770283502,13.7775
0.610948191593401,13.78
0.708699902248302,13.7825
0.659824046920798,13.785
0.464320625610899,13.7875
0.268817204301102,13.79
0.317693059628499,13.7925
0.415444770283502,13.795
0.513196480938398,13.7975
0.659824046920798,13.8
0.610948191593401,13.8025
0.464320625610899,13.805
0.415444770283502,13.8075
0.366568914955998,13.81
0.317693059628499,13.8125
0.708699902248302,13.815
0.659824046920798,13.8175
0.610948191593401,13.82
0.562072336265902,13.8225
0.268817204301102,13.825
0.415444770283502,13.8275
0.464320625610899,13.83
0.610948191593401,13.8325
0.659824046920798,13.835
0.610948191593401,13.8375
0.366568914955998,13.84
0.317693059628499,13.8425
0.415444770283502,13.845
0.464320625610899,13.8475
0.708699902248302,13.85
0.708699902248302,13.8525
0.610948191593401,13.855
0.415444770283502,13.8575
0.366568914955998,13.86
0.415444770283502,13.8625
0.562072336265902,13.865
0.610948191593401,13.8675
0.562072336265902,13.87
0.464320625610899,13.8725
0.317693059628499,13.875
0.366568914955998,13.8775
0.366568914955998,13.88
0.708699902248302,13.8825
0.659824046920798,13.885
0.562072336265902,13.8875
0.415444770283502,13.89
0.317693059628499,13.8925
0.366568914955998,13.895
0.415444770283502,13.8975
0.562072336265902,13.9
0.610948191593401,13.9025
0.513196480938398,13.905
0.268817204301102,13.9075
0.317693059628499,13.91
0.366568914955998,13.9125
0.415444770283502,13.915
0.562072336265902,13.9175
0.562072336265902,13.92
0.464320625610899,13.9225
0.219941348973598,13.925
0.317693059628499,13.9275
0.366568914955998,13.93
0.659824046920798,13.9325
0.659824046920798,13.935
0.562072336265902,13.9375
0.513196480938398,13.94
0.317693059628499,13.9425
0.415444770283502,13.945
0.464320625610899,13.9475
0.659824046920798,13.95
0.708699902248302,13.9525
0.610948191593401,13.955
0.415444770283502,13.9575
0.366568914955998,13.96
0.464320625610899,13.9625
0.513196480938398,13.965
0.806451612903198,13.9675
0.708699902248302,13.97
0.708699902248302,13.9725
0.464320625610899,13.975
0.366568914955998,13.9775
0.415444770283502,13.98
0.464320625610899,13.9825
0.659824046920798,13.985
0.610948191593401,13.9875
0.415444770283502,13.99
0.415444770283502,13.9925
0.415444770283502,13.995
0.464320625610899,13.9975
0.708699902248302,14
0.708699902248302,14.0025
0.610948191593401,14.005
0.415444770283502,14.0075
0.317693059628499,14.01
0.415444770283502,14.0125
0.366568914955998,14.015
0.562072336265902,14.0175
0.659824046920798,14.02
0.513196480938398,14.0225
0.317693059628499,14.025
0.317693059628499,14.0275
0.415444770283502,14.03
0.464320625610899,14.0325
0.610948191593401,14.035
0.659824046920798,14.0375
0.659824046920798,14.04
0.366568914955998,14.0425
0.317693059628499,14.045
0.415444770283502,14.0475
0.513196480938398,14.05
0.659824046920798,14.0525
0.610948191593401,14.055
0.464320625610899,14.0575
0.366568914955998,14.06
0.366568914955998,14.0625
0.366568914955998,14.065
0.513196480938398,14.0675
0.610948191593401,14.07
0.562072336265902,14.0725
0.415444770283502,14.075
0.317693059628499,14.0775
0.415444770283502,14.08
0.513196480938398,14.0825
0.659824046920798,14.085
0.659824046920798,14.0875
0.659824046920798,14.09
0.513196480938398,14.0925
0.366568914955998,14.095
0.464320625610899,14.0975
0.513196480938398,14.1
0.708699902248302,14.1025
0.610948191593401,14.105
0.610948191593401,14.1075
0.317693059628499,14.11
0.366568914955998,14.1125
0.415444770283502,14.115
0.610948191593401,14.1175
0.659824046920798,14.12
0.562072336265902,14.1225
0.366568914955998,14.125
0.366568914955998,14.1275
0.415444770283502,14.13
0.415444770283502,14.1325
0.610948191593401,14.135
0.610948191593401,14.1375
0.562072336265902,14.14
0.268817204301102,14.1425
0.317693059628499,14.145
0.415444770283502,14.1475
0.513196480938398,14.15
0.659824046920798,14.1525
0.659824046920798,14.155
0.610948191593401,14.1575
0.415444770283502,14.16
0.317693059628499,14.1625
0.464320625610899,14.165
0.513196480938398,14.1675
0.659824046920798,14.17
0.562072336265902,14.1725
0.464320625610899,14.175
0.366568914955998,14.1775
0.317693059628499,14.18
0.415444770283502,14.1825
0.659824046920798,14.185
0.610948191593401,14.1875
0.562072336265902,14.19
0.415444770283502,14.1925
0.317693059628499,14.195
0.415444770283502,14.1975
0.464320625610899,14.2
0.708699902248302,14.2025
0.659824046920798,14.205
0.513196480938398,14.2075
0.464320625610899,14.21
0.415444770283502,14.2125
0.464320625610899,14.215
0.562072336265902,14.2175
0.708699902248302,14.22
0.610948191593401,14.2225
0.464320625610899,14.225
0.219941348973598,14.2275
0.366568914955998,14.23
0.366568914955998,14.2325
0.659824046920798,14.235
0.708699902248302,14.2375
0.610948191593401,14.24
0.464320625610899,14.2425
0.317693059628499,14.245
0.415444770283502,14.2475
0.513196480938398,14.25
0.513196480938398,14.2525
0.610948191593401,14.255
0.513196480938398,14.2575
0.268817204301102,14.26
0.122189638318702,14.2625
0.0733137829911978,14.265
0.0733137829911978,14.2675
-0.219941348973598,14.27
-0.415444770283502,14.2725
-0.708699902248302,14.275
-1.1485826001955,14.2775
-1.3440860215054,14.28
-1.099706744868,14.2825
-0.562072336265902,14.285
0.122189638318702,14.2875
0.855327468230702,14.29
1.7350928641251,14.2925
2.5171065493646,14.295
3.2502443792766,14.2975
3.6412512218964,14.3
3.9833822091887,14.3025
3.6412512218964,14.305
3.1524926686217,14.3075
2.5171065493646,14.31
1.8817204301075,14.3125
1.4418377321603,14.315
1.0508308895406,14.3175
0.708699902248302,14.32
0.415444770283502,14.3225
0.122189638318702,14.325
-0.464320625610899,14.3275
-0.610948191593401,14.33
-0.757575757575801,14.3325
-0.708699902248302,14.335
-0.610948191593401,14.3375
-0.562072336265902,14.34
-0.610948191593401,14.3425
-0.659824046920798,14.345
-0.562072336265902,14.3475
-0.317693059628499,14.35
-0.122189638318702,14.3525
0.0733137829911978,14.355
0.0733137829911978,14.3575
0.0733137829911978,14.36
0.0244379276636986,14.3625
0.0733137829911978,14.365
0.0733137829911978,14.3675
0.415444770283502,14.37
0.464320625610899,14.3725
0.415444770283502,14.375
0.268817204301102,14.3775
0.219941348973598,14.38
0.268817204301102,14.3825
0.513196480938398,14.385
0.659824046920798,14.3875
0.610948191593401,14.39
0.513196480938398,14.3925
0.317693059628499,14.395
0.317693059628499,14.3975
0.415444770283502,14.4
0.513196480938398,14.4025
0.659824046920798,14.405
0.562072336265902,14.4075
0.415444770283502,14.41
0.366568914955998,14.4125
0.317693059628499,14.415
0.415444770283502,14.4175
0.757575757575801,14.42
0.659824046920798,14.4225
0.562072336265902,14.425
0.464320625610899,14.4275
0.317693059628499,14.43
0.415444770283502,14.4325
0.366568914955998,14.435
0.806451612903198,14.4375
0.708699902248302,14.44
0.659824046920798,14.4425
0.415444770283502,14.445
0.317693059628499,14.4475
0.415444770283502,14.45
0.562072336265902,14.4525
0.659824046920798,14.455
0.610948191593401,14.4575
0.659824046920798,14.46
0.366568914955998,14.4625
0.317693059628499,14.465
0.415444770283502,14.4675
0.610948191593401,14.47
0.659824046920798,14.4725
0.562072336265902,14.475
0.464320625610899,14.4775
0.268817204301102,14.48
0.366568914955998,14.4825
0.464320625610899,14.485
0.708699902248302,14.4875
0.610948191593401,14.49
0.513196480938398,14.4925
0.415444770283502,14.495
0.317693059628499,14.4975
0.415444770283502,14.5
0.562072336265902,14.5025
0.757575757575801,14.505
0.659824046920798,14.5075
0.708699902248302,14.51
0.317693059628499,14.5125
0.415444770283502,14.515
0.464320625610899,14.5175
0.513196480938398,14.52
0.659824046920798,14.5225
0.610948191593401,14.525
0.464320625610899,14.5275
0.366568914955998,14.53
0.415444770283502,14.5325
0.610948191593401,14.535
0.757575757575801,14.5375
0.806451612903198,14.54
0.708699902248302,14.5425
0.708699902248302,14.545
0.464320625610899,14.5475
0.562072336265902,14.55
0.659824046920798,14.5525
0.708699902248302,14.555
0.806451612903198,14.5575
0.708699902248302,14.56
0.708699902248302,14.5625
0.513196480938398,14.565
0.562072336265902,14.5675
0.708699902248302,14.57
0.708699902248302,14.5725
0.806451612903198,14.575
0.806451612903198,14.5775
0.415444770283502,14.58
0.464320625610899,14.5825
0.562072336265902,14.585
0.562072336265902,14.5875
0.757575757575801,14.59
0.659824046920798,14.5925
0.562072336265902,14.595
0.464320625610899,14.5975
0.415444770283502,14.6
0.415444770283502,14.6025
0.659824046920798,14.605
0.708699902248302,14.6075
0.610948191593401,14.61
0.562072336265902,14.6125
0.366568914955998,14.615
0.415444770283502,14.6175
0.415444770283502,14.62
0.610948191593401,14.6225
0.659824046920798,14.625
0.610948191593401,14.6275
0.415444770283502,14.63
0.366568914955998,14.6325
0.464320625610899,14.635
0.610948191593401,14.6375
0.659824046920798,14.64
0.659824046920798,14.6425
0.513196480938398,14.645
0.268817204301102,14.6475
0.366568914955998,14.65
0.464320625610899,14.6525
0.513196480938398,14.655
0.659824046920798,14.6575
0.610948191593401,14.66
0.415444770283502,14.6625
0.219941348973598,14.665
0.366568914955998,14.6675
0.513196480938398,14.67
0.659824046920798,14.6725
0.659824046920798,14.675
0.513196480938398,14.6775
0.513196480938398,14.68
0.268817204301102,14.6825
0.366568914955998,14.685
0.513196480938398,14.6875
0.562072336265902,14.69
0.562072336265902,14.6925
0.562072336265902,14.695
0.219941348973598,14.6975
0.317693059628499,14.7
0.415444770283502,14.7025
0.513196480938398,14.705
0.610948191593401,14.7075
0.562072336265902,14.71
0.366568914955998,14.7125
0.219941348973598,14.715
0.317693059628499,14.7175
0.513196480938398,14.72
0.562072336265902,14.7225
0.659824046920798,14.725
0.562072336265902,14.7275
0.415444770283502,14.73
0.317693059628499,14.7325
0.366568914955998,14.735
0.464320625610899,14.7375
0.757575757575801,14.74
0.610948191593401,14.7425
0.562072336265902,14.745
0.268817204301102,14.7475
0.317693059628499,14.75
0.415444770283502,14.7525
0.562072336265902,14.755
0.757575757575801,14.7575
0.610948191593401,14.76
0.562072336265902,14.7625
0.317693059628499,14.765
0.366568914955998,14.7675
0.464320625610899,14.77
0.708699902248302,14.7725
0.708699902248302,14.775
0.610948191593401,14.7775
0.415444770283502,14.78
0.219941348973598,14.7825
0.415444770283502,14.785
0.562072336265902,14.7875
0.659824046920798,14.79
0.659824046920798,14.7925
0.562072336265902,14.795
0.513196480938398,14.7975
0.317693059628499,14.8
0.415444770283502,14.8025
0.415444770283502,14.805
0.708699902248302,14.8075
0.610948191593401,14.81
0.464320625610899,14.8125
0.317693059628499,14.815
0.366568914955998,14.8175
0.464320625610899,14.82
0.610948191593401,14.8225
0.708699902248302,14.825
0.659824046920798,14.8275
0.513196480938398,14.83
0.464320625610899,14.8325
0.415444770283502,14.835
0.366568914955998,14.8375
0.610948191593401,14.84
0.708699902248302,14.8425
0.610948191593401,14.845
0.464320625610899,14.8475
0.317693059628499,14.85
0.415444770283502,14.8525
0.464320625610899,14.855
0.659824046920798,14.8575
0.659824046920798,14.86
0.513196480938398,14.8625
0.268817204301102,14.865
0.317693059628499,14.8675
0.415444770283502,14.87
0.513196480938398,14.8725
0.610948191593401,14.875
0.610948191593401,14.8775
0.513196480938398,14.88
0.464320625610899,14.8825
0.415444770283502,14.885
0.464320625610899,14.8875
0.513196480938398,14.89
0.708699902248302,14.8925
0.610948191593401,14.895
0.513196480938398,14.8975
0.268817204301102,14.9
0.366568914955998,14.9025
0.366568914955998,14.905
0.659824046920798,14.9075
0.659824046920798,14.91
0.562072336265902,14.9125
0.513196480938398,14.915
0.268817204301102,14.9175
0.366568914955998,14.92
0.562072336265902,14.9225
0.610948191593401,14.925
0.610948191593401,14.9275
0.562072336265902,14.93
0.268817204301102,14.9325
0.317693059628499,14.935
0.415444770283502,14.9375
0.513196480938398,14.94
0.659824046920798,14.9425
0.610948191593401,14.945
0.659824046920798,14.9475
0.268817204301102,14.95
0.366568914955998,14.9525
0.366568914955998,14.955
0.659824046920798,14.9575
0.708699902248302,14.96
0.610948191593401,14.9625
0.464320625610899,14.965
0.317693059628499,14.9675
0.415444770283502,14.97
0.562072336265902,14.9725
0.659824046920798,14.975
0.659824046920798,14.9775
0.562072336265902,14.98
0.415444770283502,14.9825
0.317693059628499,14.985
0.415444770283502,14.9875
0.464320625610899,14.99
0.708699902248302,14.9925
0.610948191593401,14.995
0.562072336265902,14.9975
0.268817204301102,15
