2.53176930596285,0.065
2.5366568914956,0.0675
2.54154447702835,0.07
2.56109481915934,0.0725
2.56598240469208,0.075
2.55131964809384,0.0775
2.52688172043011,0.08
2.51710654936461,0.0825
2.51221896383187,0.085
2.50244379276637,0.0875
2.50244379276637,0.09
2.47311827956989,0.0925
2.43890518084066,0.095
2.39980449657869,0.0975
2.37047898338221,0.1
2.3802541544477,0.1025
2.42913000977517,0.105
2.47311827956989,0.1075
2.5366568914956,0.11
2.6099706744868,0.1125
2.68817204301075,0.115
2.7663734115347,0.1175
2.82013685239492,0.12
2.84457478005865,0.1225
2.8494623655914,0.125
2.81036168132942,0.1275
2.75659824046921,0.13
2.68817204301075,0.1325
2.64418377321603,0.135
2.60508308895406,0.1375
2.58553274682307,0.14
2.55620723362659,0.1425
2.51710654936461,0.145
2.47800586510264,0.1475
2.44868035190616,0.15
2.44868035190616,0.1525
2.45845552297165,0.155
2.47311827956989,0.1575
2.47800586510264,0.16
2.47311827956989,0.1625
2.46823069403715,0.165
2.47311827956989,0.1675
2.48778103616813,0.17
2.50733137829912,0.1725
2.52199413489736,0.175
2.52199413489736,0.1775
2.51221896383187,0.18
2.49755620723363,0.1825
2.51221896383187,0.185
2.51221896383187,0.1875
2.5366568914956,0.19
2.55131964809384,0.1925
2.54643206256109,0.195
2.53176930596285,0.1975
2.52199413489736,0.2
2.53176930596285,0.2025
2.54154447702835,0.205
2.56109481915934,0.2075
2.56109481915934,0.21
2.55131964809384,0.2125
2.53176930596285,0.215
2.53176930596285,0.2175
2.54154447702835,0.22
2.55131964809384,0.2225
2.56598240469208,0.225
2.56109481915934,0.2275
2.55620723362659,0.23
2.52688172043011,0.2325
2.5366568914956,0.235
2.54154447702835,0.2375
2.55620723362659,0.24
2.56598240469208,0.2425
2.55620723362659,0.245
2.54643206256109,0.2475
2.52688172043011,0.25
2.5366568914956,0.2525
2.54643206256109,0.255
2.55131964809384,0.2575
2.56598240469208,0.26
2.56109481915934,0.2625
2.54154447702835,0.265
2.53176930596285,0.2675
2.54154447702835,0.27
2.55620723362659,0.2725
2.57575757575758,0.275
2.56598240469208,0.2775
2.56109481915934,0.28
2.5366568914956,0.2825
2.53176930596285,0.285
2.54154447702835,0.2875
2.54643206256109,0.29
2.56598240469208,0.2925
2.56109481915934,0.295
2.55620723362659,0.2975
2.54154447702835,0.3
2.5366568914956,0.3025
2.54154447702835,0.305
2.55131964809384,0.3075
2.56598240469208,0.31
2.55620723362659,0.3125
2.55620723362659,0.315
2.53176930596285,0.3175
2.54154447702835,0.32
2.55131964809384,0.3225
2.57575757575758,0.325
2.56598240469208,0.3275
2.55620723362659,0.33
2.54643206256109,0.3325
2.54154447702835,0.335
2.54643206256109,0.3375
2.55131964809384,0.34
2.57086999022483,0.3425
2.56598240469208,0.345
2.55620723362659,0.3475
2.5366568914956,0.35
2.54643206256109,0.3525
2.55620723362659,0.355
2.56109481915934,0.3575
2.58064516129032,0.36
2.57086999022483,0.3625
2.55620723362659,0.365
2.54154447702835,0.3675
2.54643206256109,0.37
2.55131964809384,0.3725
2.56598240469208,0.375
2.58064516129032,0.3775
2.57086999022483,0.38
2.55620723362659,0.3825
2.54643206256109,0.385
2.55131964809384,0.3875
2.56109481915934,0.39
2.57575757575758,0.3925
2.57086999022483,0.395
2.56598240469208,0.3975
2.54154447702835,0.4
2.5366568914956,0.4025
2.54643206256109,0.405
2.55620723362659,0.4075
2.57086999022483,0.41
2.56109481915934,0.4125
2.55131964809384,0.415
2.53176930596285,0.4175
2.53176930596285,0.42
2.5366568914956,0.4225
2.55620723362659,0.425
2.56109481915934,0.4275
2.55620723362659,0.43
2.54154447702835,0.4325
2.54154447702835,0.435
2.5366568914956,0.4375
2.54643206256109,0.44
2.57086999022483,0.4425
2.56598240469208,0.445
2.55620723362659,0.4475
2.54643206256109,0.45
2.53176930596285,0.4525
2.54643206256109,0.455
2.55620723362659,0.4575
2.57575757575758,0.46
2.56598240469208,0.4625
2.56598240469208,0.465
2.53176930596285,0.4675
2.5366568914956,0.47
2.54154447702835,0.4725
2.55620723362659,0.475
2.57086999022483,0.4775
2.56109481915934,0.48
2.55620723362659,0.4825
2.52688172043011,0.485
2.5366568914956,0.4875
2.54643206256109,0.49
2.55620723362659,0.4925
2.56598240469208,0.495
2.55620723362659,0.4975
2.54154447702835,0.5
2.53176930596285,0.5025
2.5366568914956,0.505
2.54154447702835,0.5075
2.55131964809384,0.51
2.56109481915934,0.5125
2.54643206256109,0.515
2.52688172043011,0.5175
2.52688172043011,0.52
2.5366568914956,0.5225
2.54154447702835,0.525
2.56598240469208,0.5275
2.55620723362659,0.53
2.54643206256109,0.5325
2.53176930596285,0.535
2.53176930596285,0.5375
2.54154447702835,0.54
2.55131964809384,0.5425
2.56109481915934,0.545
2.55620723362659,0.5475
2.54643206256109,0.55
2.53176930596285,0.5525
2.5366568914956,0.555
2.5366568914956,0.5575
2.56109481915934,0.56
2.56109481915934,0.5625
2.55620723362659,0.565
2.5366568914956,0.5675
2.53176930596285,0.57
2.54154447702835,0.5725
2.55131964809384,0.575
2.56109481915934,0.5775
2.56598240469208,0.58
2.56109481915934,0.5825
2.54643206256109,0.585
2.5366568914956,0.5875
2.54643206256109,0.59
2.55620723362659,0.5925
2.57086999022483,0.595
2.56109481915934,0.5975
2.55131964809384,0.6
2.53176930596285,0.6025
2.54154447702835,0.605
2.54154447702835,0.6075
2.55131964809384,0.61
2.56598240469208,0.6125
2.55620723362659,0.615
2.54154447702835,0.6175
2.52688172043011,0.62
2.54154447702835,0.6225
2.55131964809384,0.625
2.57086999022483,0.6275
2.56598240469208,0.63
2.57086999022483,0.6325
2.5366568914956,0.635
2.53176930596285,0.6375
2.54154447702835,0.64
2.55131964809384,0.6425
2.57086999022483,0.645
2.56598240469208,0.6475
2.54643206256109,0.65
2.52688172043011,0.6525
2.5366568914956,0.655
2.54643206256109,0.6575
2.56109481915934,0.66
2.56598240469208,0.6625
2.56109481915934,0.665
2.55131964809384,0.6675
2.54643206256109,0.67
2.54154447702835,0.6725
2.55620723362659,0.675
2.56598240469208,0.6775
2.56598240469208,0.68
2.55620723362659,0.6825
2.54643206256109,0.685
2.5366568914956,0.6875
2.54154447702835,0.69
2.55131964809384,0.6925
2.58064516129032,0.695
2.56598240469208,0.6975
2.56109481915934,0.7
2.5366568914956,0.7025
2.53176930596285,0.705
2.54154447702835,0.7075
2.54643206256109,0.71
2.56598240469208,0.7125
2.56109481915934,0.715
2.55131964809384,0.7175
2.52199413489736,0.72
2.5366568914956,0.7225
2.5366568914956,0.725
2.56109481915934,0.7275
2.56598240469208,0.73
2.56109481915934,0.7325
2.54643206256109,0.735
2.53176930596285,0.7375
2.54154447702835,0.74
2.54643206256109,0.7425
2.57086999022483,0.745
2.56598240469208,0.7475
2.56109481915934,0.75
2.5366568914956,0.7525
2.53176930596285,0.755
2.54154447702835,0.7575
2.55131964809384,0.76
2.58064516129032,0.7625
2.56598240469208,0.765
2.56109481915934,0.7675
2.52688172043011,0.77
2.5366568914956,0.7725
2.54643206256109,0.775
2.55131964809384,0.7775
2.57086999022483,0.78
2.56109481915934,0.7825
2.54643206256109,0.785
2.53176930596285,0.7875
2.54154447702835,0.79
2.5366568914956,0.7925
2.56109481915934,0.795
2.56598240469208,0.7975
2.56109481915934,0.8
2.54154447702835,0.8025
2.53176930596285,0.805
2.5366568914956,0.8075
2.55131964809384,0.81
2.55620723362659,0.8125
2.56598240469208,0.815
2.56109481915934,0.8175
2.5366568914956,0.82
2.53176930596285,0.8225
2.54154447702835,0.825
2.55131964809384,0.8275
2.56598240469208,0.83
2.55620723362659,0.8325
2.5366568914956,0.835
2.52199413489736,0.8375
2.52688172043011,0.84
2.54154447702835,0.8425
2.55131964809384,0.845
2.56598240469208,0.8475
2.56109481915934,0.85
2.55620723362659,0.8525
2.5366568914956,0.855
2.54643206256109,0.8575
2.55620723362659,0.86
2.57086999022483,0.8625
2.57086999022483,0.865
2.56109481915934,0.8675
2.54643206256109,0.87
2.5366568914956,0.8725
2.54643206256109,0.875
2.54643206256109,0.8775
2.56598240469208,0.88
2.56598240469208,0.8825
2.55620723362659,0.885
2.54154447702835,0.8875
2.53176930596285,0.89
2.54643206256109,0.8925
2.55131964809384,0.895
2.56598240469208,0.8975
2.56109481915934,0.9
2.54643206256109,0.9025
2.54154447702835,0.905
2.53176930596285,0.9075
2.5366568914956,0.91
2.55620723362659,0.9125
2.55131964809384,0.915
2.53176930596285,0.9175
2.50733137829912,0.92
2.46823069403715,0.9225
2.45356793743891,0.925
2.44379276637341,0.9275
2.41935483870968,0.93
2.40469208211144,0.9325
2.3900293255132,0.935
2.3900293255132,0.9375
2.42913000977517,0.94
2.49755620723363,0.9425
2.59530791788856,0.945
2.71260997067449,0.9475
2.78592375366569,0.95
2.82991202346041,0.9525
2.82991202346041,0.955
2.82502443792766,0.9575
2.80547409579668,0.96
2.78103616813294,0.9625
2.73216031280547,0.965
2.67350928641251,0.9675
2.61485826001955,0.97
2.57086999022483,0.9725
2.53176930596285,0.975
2.51221896383187,0.9775
2.50244379276637,0.98
2.48289345063539,0.9825
2.46823069403715,0.985
2.44868035190616,0.9875
2.43890518084066,0.99
2.44868035190616,0.9925
2.4633431085044,0.995
2.49266862170088,0.9975
2.49755620723363,1
2.50244379276637,1.0025
2.49266862170088,1.005
2.48778103616813,1.0075
2.50244379276637,1.01
2.52199413489736,1.0125
2.5366568914956,1.015
2.53176930596285,1.0175
2.52688172043011,1.02
2.50733137829912,1.0225
2.51710654936461,1.025
2.52688172043011,1.0275
2.54643206256109,1.03
2.55620723362659,1.0325
2.55131964809384,1.035
2.5366568914956,1.0375
2.53176930596285,1.04
2.53176930596285,1.0425
2.5366568914956,1.045
2.55131964809384,1.0475
2.56109481915934,1.05
2.55620723362659,1.0525
2.54643206256109,1.055
2.53176930596285,1.0575
2.54154447702835,1.06
2.54643206256109,1.0625
2.57086999022483,1.065
2.56109481915934,1.0675
2.55620723362659,1.07
2.5366568914956,1.0725
2.53176930596285,1.075
2.54643206256109,1.0775
2.56598240469208,1.08
2.56598240469208,1.0825
2.56109481915934,1.085
2.54643206256109,1.0875
2.54154447702835,1.09
2.54154447702835,1.0925
2.54154447702835,1.095
2.56109481915934,1.0975
2.56598240469208,1.1
2.55620723362659,1.1025
2.5366568914956,1.105
2.53176930596285,1.1075
2.54154447702835,1.11
2.56109481915934,1.1125
2.55131964809384,1.115
2.56598240469208,1.1175
2.55620723362659,1.12
2.54154447702835,1.1225
2.5366568914956,1.125
2.54154447702835,1.1275
2.56109481915934,1.13
2.57086999022483,1.1325
2.56109481915934,1.135
2.55131964809384,1.1375
2.53176930596285,1.14
2.5366568914956,1.1425
2.55131964809384,1.145
2.55620723362659,1.1475
2.57086999022483,1.15
2.56109481915934,1.1525
2.56109481915934,1.155
2.54643206256109,1.1575
2.54154447702835,1.16
2.54643206256109,1.1625
2.56598240469208,1.165
2.56598240469208,1.1675
2.56109481915934,1.17
2.54643206256109,1.1725
2.54154447702835,1.175
2.54643206256109,1.1775
2.55620723362659,1.18
2.56109481915934,1.1825
2.57086999022483,1.185
2.56598240469208,1.1875
2.54154447702835,1.19
2.54643206256109,1.1925
2.55620723362659,1.195
2.56598240469208,1.1975
2.58064516129032,1.2
2.57575757575758,1.2025
2.56598240469208,1.205
2.55131964809384,1.2075
2.55131964809384,1.21
2.56109481915934,1.2125
2.58064516129032,1.215
2.58064516129032,1.2175
2.57086999022483,1.22
2.55620723362659,1.2225
2.54154447702835,1.225
2.54643206256109,1.2275
2.55620723362659,1.23
2.58064516129032,1.2325
2.57086999022483,1.235
2.55620723362659,1.2375
2.54643206256109,1.24
2.5366568914956,1.2425
2.54154447702835,1.245
2.55620723362659,1.2475
2.56598240469208,1.25
2.56109481915934,1.2525
2.55131964809384,1.255
2.5366568914956,1.2575
2.5366568914956,1.26
2.54643206256109,1.2625
2.55620723362659,1.265
2.56598240469208,1.2675
2.55620723362659,1.27
2.54643206256109,1.2725
2.5366568914956,1.275
2.5366568914956,1.2775
2.54154447702835,1.28
2.56109481915934,1.2825
2.56598240469208,1.285
2.55620723362659,1.2875
2.54154447702835,1.29
2.53176930596285,1.2925
2.54154447702835,1.295
2.55131964809384,1.2975
2.56598240469208,1.3
2.56598240469208,1.3025
2.56109481915934,1.305
2.54154447702835,1.3075
2.5366568914956,1.31
2.54643206256109,1.3125
2.55620723362659,1.315
2.57086999022483,1.3175
2.56109481915934,1.32
2.54643206256109,1.3225
2.52688172043011,1.325
2.5366568914956,1.3275
2.55131964809384,1.33
2.55131964809384,1.3325
2.56598240469208,1.335
2.55620723362659,1.3375
2.54154447702835,1.34
2.53176930596285,1.3425
2.5366568914956,1.345
2.55131964809384,1.3475
2.55131964809384,1.35
2.55620723362659,1.3525
2.55131964809384,1.355
2.54154447702835,1.3575
2.53176930596285,1.36
2.53176930596285,1.3625
2.56109481915934,1.365
2.57086999022483,1.3675
2.56109481915934,1.37
2.54643206256109,1.3725
2.53176930596285,1.375
2.53176930596285,1.3775
2.54154447702835,1.38
2.55131964809384,1.3825
2.56598240469208,1.385
2.56109481915934,1.3875
2.55131964809384,1.39
2.5366568914956,1.3925
2.5366568914956,1.395
2.55131964809384,1.3975
2.55620723362659,1.4
2.56598240469208,1.4025
2.56109481915934,1.405
2.54154447702835,1.4075
2.53176930596285,1.41
2.54154447702835,1.4125
2.55131964809384,1.415
2.55620723362659,1.4175
2.56598240469208,1.42
2.55131964809384,1.4225
2.5366568914956,1.425
2.53176930596285,1.4275
2.54154447702835,1.43
2.55131964809384,1.4325
2.56598240469208,1.435
2.56109481915934,1.4375
2.55131964809384,1.44
2.52688172043011,1.4425
2.54154447702835,1.445
2.54154447702835,1.4475
2.56109481915934,1.45
2.57086999022483,1.4525
2.56109481915934,1.455
2.54643206256109,1.4575
2.53176930596285,1.46
2.54154447702835,1.4625
2.55620723362659,1.465
2.56598240469208,1.4675
2.56598240469208,1.47
2.55620723362659,1.4725
2.54643206256109,1.475
2.5366568914956,1.4775
2.54154447702835,1.48
2.55131964809384,1.4825
2.56598240469208,1.485
2.56598240469208,1.4875
2.55620723362659,1.49
2.52688172043011,1.4925
2.5366568914956,1.495
2.54643206256109,1.4975
2.55620723362659,1.5
2.56598240469208,1.5025
2.56109481915934,1.505
2.55131964809384,1.5075
2.5366568914956,1.51
2.54154447702835,1.5125
2.5366568914956,1.515
2.55131964809384,1.5175
2.56598240469208,1.52
2.55620723362659,1.5225
2.54154447702835,1.525
2.53176930596285,1.5275
2.5366568914956,1.53
2.55131964809384,1.5325
2.57086999022483,1.535
2.56109481915934,1.5375
2.55620723362659,1.54
2.54154447702835,1.5425
2.5366568914956,1.545
2.54643206256109,1.5475
2.56598240469208,1.55
2.56598240469208,1.5525
2.56109481915934,1.555
2.54643206256109,1.5575
2.52688172043011,1.56
2.53176930596285,1.5625
2.54154447702835,1.565
2.57086999022483,1.5675
2.56598240469208,1.57
2.56109481915934,1.5725
2.55131964809384,1.575
2.53176930596285,1.5775
2.54154447702835,1.58
2.54154447702835,1.5825
2.58064516129032,1.585
2.56598240469208,1.5875
2.55620723362659,1.59
2.5366568914956,1.5925
2.53176930596285,1.595
2.54154447702835,1.5975
2.55131964809384,1.6
2.55620723362659,1.6025
2.56109481915934,1.605
2.55620723362659,1.6075
2.54643206256109,1.61
2.53176930596285,1.6125
2.54154447702835,1.615
2.55131964809384,1.6175
2.57086999022483,1.62
2.56109481915934,1.6225
2.54154447702835,1.625
2.54154447702835,1.6275
2.5366568914956,1.63
2.55131964809384,1.6325
2.56598240469208,1.635
2.56598240469208,1.6375
2.55620723362659,1.64
2.5366568914956,1.6425
2.53176930596285,1.645
2.5366568914956,1.6475
2.54643206256109,1.65
2.56109481915934,1.6525
2.56109481915934,1.655
2.54643206256109,1.6575
2.52199413489736,1.66
2.53176930596285,1.6625
2.5366568914956,1.665
2.54643206256109,1.6675
2.56109481915934,1.67
2.56598240469208,1.6725
2.56109481915934,1.675
2.5366568914956,1.6775
2.5366568914956,1.68
2.55131964809384,1.6825
2.57086999022483,1.685
2.57575757575758,1.6875
2.56109481915934,1.69
2.55131964809384,1.6925
2.52688172043011,1.695
2.54154447702835,1.6975
2.54154447702835,1.7
2.55620723362659,1.7025
2.56598240469208,1.705
2.56109481915934,1.7075
2.55131964809384,1.71
2.53176930596285,1.7125
2.54154447702835,1.715
2.55620723362659,1.7175
2.56109481915934,1.72
2.56109481915934,1.7225
2.56109481915934,1.725
2.54154447702835,1.7275
2.5366568914956,1.73
2.54643206256109,1.7325
2.56109481915934,1.735
2.56109481915934,1.7375
2.54643206256109,1.74
2.53176930596285,1.7425
2.49755620723363,1.745
2.47311827956989,1.7475
2.45845552297165,1.75
2.45356793743891,1.7525
2.42424242424242,1.755
2.39491691104594,1.7575
2.3900293255132,1.76
2.39491691104594,1.7625
2.43890518084066,1.765
2.51710654936461,1.7675
2.6197458455523,1.77
2.72238514173998,1.7725
2.79081133919844,1.775
2.82502443792766,1.7775
2.82991202346041,1.78
2.82991202346041,1.7825
2.80058651026393,1.785
2.78103616813294,1.7875
2.72238514173998,1.79
2.65395894428152,1.7925
2.60019550342131,1.795
2.55620723362659,1.7975
2.52688172043011,1.8
2.51221896383187,1.8025
2.49755620723363,1.805
2.47311827956989,1.8075
2.45845552297165,1.81
2.43401759530792,1.8125
2.43890518084066,1.815
2.45845552297165,1.8175
2.47311827956989,1.82
2.48778103616813,1.8225
2.48778103616813,1.825
2.48289345063539,1.8275
2.47800586510264,1.83
2.49755620723363,1.8325
2.51221896383187,1.835
2.5366568914956,1.8375
2.53176930596285,1.84
2.52199413489736,1.8425
2.51221896383187,1.845
2.51221896383187,1.8475
2.52688172043011,1.85
2.53176930596285,1.8525
2.55131964809384,1.855
2.55131964809384,1.8575
2.5366568914956,1.86
2.5366568914956,1.8625
2.52688172043011,1.865
2.52688172043011,1.8675
2.54643206256109,1.87
2.56109481915934,1.8725
2.55620723362659,1.875
2.5366568914956,1.8775
2.54154447702835,1.88
2.5366568914956,1.8825
2.54154447702835,1.885
2.56598240469208,1.8875
2.56598240469208,1.89
2.55620723362659,1.8925
2.53176930596285,1.895
2.53176930596285,1.8975
2.54154447702835,1.9
2.54643206256109,1.9025
2.57086999022483,1.905
2.56598240469208,1.9075
2.55131964809384,1.91
2.52688172043011,1.9125
2.53176930596285,1.915
2.54643206256109,1.9175
2.56598240469208,1.92
2.56598240469208,1.9225
2.56109481915934,1.925
2.55131964809384,1.9275
2.52199413489736,1.93
2.5366568914956,1.9325
2.55131964809384,1.935
2.55131964809384,1.9375
2.56598240469208,1.94
2.55620723362659,1.9425
2.54154447702835,1.945
2.53176930596285,1.9475
2.5366568914956,1.95
2.54154447702835,1.9525
2.55620723362659,1.955
2.56598240469208,1.9575
2.54643206256109,1.96
2.5366568914956,1.9625
2.5366568914956,1.965
2.54154447702835,1.9675
2.55131964809384,1.97
2.57086999022483,1.9725
2.56598240469208,1.975
2.56109481915934,1.9775
2.53176930596285,1.98
2.5366568914956,1.9825
2.54643206256109,1.985
2.55131964809384,1.9875
2.57086999022483,1.99
2.56109481915934,1.9925
2.55620723362659,1.995
2.55131964809384,1.9975
2.54154447702835,2
2.55620723362659,2.0025
2.56598240469208,2.005
2.57575757575758,2.0075
2.56598240469208,2.01
2.55131964809384,2.0125
2.54643206256109,2.015
2.55131964809384,2.0175
2.56598240469208,2.02
2.57575757575758,2.0225
2.57575757575758,2.025
2.58064516129032,2.0275
2.55131964809384,2.03
2.55131964809384,2.0325
2.55620723362659,2.035
2.56598240469208,2.0375
2.58064516129032,2.04
2.57086999022483,2.0425
2.57575757575758,2.045
2.55620723362659,2.0475
2.54643206256109,2.05
2.55131964809384,2.0525
2.56598240469208,2.055
2.57086999022483,2.0575
2.56598240469208,2.06
2.54643206256109,2.0625
2.5366568914956,2.065
2.54154447702835,2.0675
2.54643206256109,2.07
2.56109481915934,2.0725
2.56598240469208,2.075
2.55131964809384,2.0775
2.5366568914956,2.08
2.53176930596285,2.0825
2.54154447702835,2.085
2.54643206256109,2.0875
2.58064516129032,2.09
2.56109481915934,2.0925
2.54643206256109,2.095
2.53176930596285,2.0975
2.5366568914956,2.1
2.54643206256109,2.1025
2.56109481915934,2.105
2.57086999022483,2.1075
2.56109481915934,2.11
2.55131964809384,2.1125
2.54154447702835,2.115
2.5366568914956,2.1175
2.54643206256109,2.12
2.55620723362659,2.1225
2.56598240469208,2.125
2.55620723362659,2.1275
2.54154447702835,2.13
2.53176930596285,2.1325
2.54154447702835,2.135
2.54154447702835,2.1375
2.56598240469208,2.14
2.56109481915934,2.1425
2.55620723362659,2.145
2.54643206256109,2.1475
2.5366568914956,2.15
2.54154447702835,2.1525
2.55131964809384,2.155
2.56598240469208,2.1575
2.55620723362659,2.16
2.56109481915934,2.1625
2.5366568914956,2.165
2.53176930596285,2.1675
2.54154447702835,2.17
2.55620723362659,2.1725
2.56109481915934,2.175
2.55620723362659,2.1775
2.54643206256109,2.18
2.52688172043011,2.1825
2.5366568914956,2.185
2.55131964809384,2.1875
2.55620723362659,2.19
2.56109481915934,2.1925
2.56109481915934,2.195
2.53176930596285,2.1975
2.5366568914956,2.2
2.54154447702835,2.2025
2.55131964809384,2.205
2.56109481915934,2.2075
2.56109481915934,2.21
2.56109481915934,2.2125
2.52688172043011,2.215
2.53176930596285,2.2175
2.54154447702835,2.22
2.55131964809384,2.2225
2.56598240469208,2.225
2.56109481915934,2.2275
2.54643206256109,2.23
2.52688172043011,2.2325
2.5366568914956,2.235
2.54643206256109,2.2375
2.55620723362659,2.24
2.56598240469208,2.2425
2.56109481915934,2.245
2.55620723362659,2.2475
2.53176930596285,2.25
2.54154447702835,2.2525
2.55131964809384,2.255
2.56598240469208,2.2575
2.56598240469208,2.26
2.55620723362659,2.2625
2.53176930596285,2.265
2.5366568914956,2.2675
2.54154447702835,2.27
2.55131964809384,2.2725
2.56109481915934,2.275
2.56598240469208,2.2775
2.56598240469208,2.28
2.52688172043011,2.2825
2.5366568914956,2.285
2.54154447702835,2.2875
2.57086999022483,2.29
2.57086999022483,2.2925
2.56109481915934,2.295
2.55620723362659,2.2975
2.53176930596285,2.3
2.54154447702835,2.3025
2.54643206256109,2.305
2.55620723362659,2.3075
2.56109481915934,2.31
2.55620723362659,2.3125
2.55131964809384,2.315
2.53176930596285,2.3175
2.54154447702835,2.32
2.55620723362659,2.3225
2.57575757575758,2.325
2.56109481915934,2.3275
2.57086999022483,2.33
2.53176930596285,2.3325
2.5366568914956,2.335
2.54154447702835,2.3375
2.55131964809384,2.34
2.56598240469208,2.3425
2.56109481915934,2.345
2.55131964809384,2.3475
2.52688172043011,2.35
2.5366568914956,2.3525
2.54643206256109,2.355
2.55620723362659,2.3575
2.56598240469208,2.36
2.55620723362659,2.3625
2.54643206256109,2.365
2.53176930596285,2.3675
2.5366568914956,2.37
2.55620723362659,2.3725
2.55620723362659,2.375
2.56598240469208,2.3775
2.55131964809384,2.38
2.53176930596285,2.3825
2.53176930596285,2.385
2.54154447702835,2.3875
2.54643206256109,2.39
2.58064516129032,2.3925
2.56109481915934,2.395
2.56109481915934,2.3975
2.53176930596285,2.4
2.5366568914956,2.4025
2.54154447702835,2.405
2.55131964809384,2.4075
2.56598240469208,2.41
2.56109481915934,2.4125
2.55131964809384,2.415
2.53176930596285,2.4175
2.5366568914956,2.42
2.55620723362659,2.4225
2.57086999022483,2.425
2.57086999022483,2.4275
2.56109481915934,2.43
2.54154447702835,2.4325
2.5366568914956,2.435
2.54154447702835,2.4375
2.56109481915934,2.44
2.55620723362659,2.4425
2.56109481915934,2.445
2.55131964809384,2.4475
2.52199413489736,2.45
2.53176930596285,2.4525
2.5366568914956,2.455
2.55620723362659,2.4575
2.56598240469208,2.46
2.56109481915934,2.4625
2.55131964809384,2.465
2.51710654936461,2.4675
2.53176930596285,2.47
2.54154447702835,2.4725
2.56598240469208,2.475
2.56109481915934,2.4775
2.55131964809384,2.48
2.54643206256109,2.4825
2.53176930596285,2.485
2.54154447702835,2.4875
2.54643206256109,2.49
2.56109481915934,2.4925
2.57086999022483,2.495
2.57086999022483,2.4975
2.55131964809384,2.5
2.54154447702835,2.5025
2.54643206256109,2.505
2.56598240469208,2.5075
2.57086999022483,2.51
2.56598240469208,2.5125
2.56598240469208,2.515
2.53176930596285,2.5175
2.5366568914956,2.52
2.54643206256109,2.5225
2.56109481915934,2.525
2.56598240469208,2.5275
2.56109481915934,2.53
2.54154447702835,2.5325
2.52199413489736,2.535
2.5366568914956,2.5375
2.54154447702835,2.54
2.56109481915934,2.5425
2.56109481915934,2.545
2.55620723362659,2.5475
2.54154447702835,2.55
2.52688172043011,2.5525
2.53176930596285,2.555
2.53176930596285,2.5575
2.54154447702835,2.56
2.51710654936461,2.5625
2.47800586510264,2.565
2.42913000977517,2.5675
2.40469208211144,2.57
2.3900293255132,2.5725
2.3900293255132,2.575
2.41446725317693,2.5775
2.43890518084066,2.58
2.49266862170088,2.5825
2.53176930596285,2.585
2.63929618768328,2.5875
2.74682306940371,2.59
2.82502443792766,2.5925
2.85923753665689,2.595
2.85434995112414,2.5975
2.81524926686217,2.6
2.76148582600196,2.6025
2.73216031280547,2.605
2.68817204301075,2.6075
2.65884652981427,2.61
2.6099706744868,2.6125
2.56109481915934,2.615
2.51710654936461,2.6175
2.47800586510264,2.62
2.46823069403715,2.6225
2.4633431085044,2.625
2.47800586510264,2.6275
2.4633431085044,2.63
2.47311827956989,2.6325
2.44379276637341,2.635
2.45356793743891,2.6375
2.46823069403715,2.64
2.48289345063539,2.6425
2.50733137829912,2.645
2.50733137829912,2.6475
2.51221896383187,2.65
2.50244379276637,2.6525
2.50244379276637,2.655
2.51710654936461,2.6575
2.53176930596285,2.66
2.54643206256109,2.6625
2.54154447702835,2.665
2.52199413489736,2.6675
2.52199413489736,2.67
2.53176930596285,2.6725
2.54154447702835,2.675
2.54643206256109,2.6775
2.55620723362659,2.68
2.55620723362659,2.6825
2.5366568914956,2.685
2.53176930596285,2.6875
2.54154447702835,2.69
2.54154447702835,2.6925
2.56598240469208,2.695
2.56109481915934,2.6975
2.55131964809384,2.7
2.54154447702835,2.7025
2.5366568914956,2.705
2.54154447702835,2.7075
2.57086999022483,2.71
2.56598240469208,2.7125
2.56109481915934,2.715
2.55131964809384,2.7175
2.53176930596285,2.72
2.5366568914956,2.7225
2.54643206256109,2.725
2.57086999022483,2.7275
2.56109481915934,2.73
2.55131964809384,2.7325
2.53176930596285,2.735
2.53176930596285,2.7375
2.54154447702835,2.74
2.54643206256109,2.7425
2.56598240469208,2.745
2.56109481915934,2.7475
2.55620723362659,2.75
2.54154447702835,2.7525
2.5366568914956,2.755
2.54643206256109,2.7575
2.55620723362659,2.76
2.57086999022483,2.7625
2.56109481915934,2.765
2.54154447702835,2.7675
2.52688172043011,2.77
2.5366568914956,2.7725
2.5366568914956,2.775
2.55131964809384,2.7775
2.56598240469208,2.78
2.56109481915934,2.7825
2.54154447702835,2.785
2.5366568914956,2.7875
2.54154447702835,2.79
2.55131964809384,2.7925
2.55620723362659,2.795
2.56598240469208,2.7975
2.55620723362659,2.8
2.5366568914956,2.8025
2.5366568914956,2.805
2.54643206256109,2.8075
2.54643206256109,2.81
2.56598240469208,2.8125
2.56598240469208,2.815
2.56598240469208,2.8175
2.53176930596285,2.82
2.54643206256109,2.8225
2.55620723362659,2.825
2.56109481915934,2.8275
2.58064516129032,2.83
2.57086999022483,2.8325
2.56109481915934,2.835
2.55131964809384,2.8375
2.55131964809384,2.84
2.56598240469208,2.8425
2.56598240469208,2.845
2.57575757575758,2.8475
2.57086999022483,2.85
2.56598240469208,2.8525
2.55131964809384,2.855
2.55131964809384,2.8575
2.56598240469208,2.86
2.59042033235582,2.8625
2.57086999022483,2.865
2.56109481915934,2.8675
2.54154447702835,2.87
2.54154447702835,2.8725
2.54643206256109,2.875
2.55620723362659,2.8775
2.57086999022483,2.88
2.56109481915934,2.8825
2.55131964809384,2.885
2.5366568914956,2.8875
2.5366568914956,2.89
2.5366568914956,2.8925
2.56109481915934,2.895
2.56598240469208,2.8975
2.56109481915934,2.9
2.55620723362659,2.9025
2.54154447702835,2.905
2.54154447702835,2.9075
2.55131964809384,2.91
2.57575757575758,2.9125
2.56598240469208,2.915
2.56109481915934,2.9175
2.5366568914956,2.92
2.5366568914956,2.9225
2.54643206256109,2.925
2.54643206256109,2.9275
2.56109481915934,2.93
2.56598240469208,2.9325
2.56109481915934,2.935
2.52688172043011,2.9375
2.5366568914956,2.94
2.54154447702835,2.9425
2.55131964809384,2.945
2.56598240469208,2.9475
2.55620723362659,2.95
2.54154447702835,2.9525
2.52688172043011,2.955
2.53176930596285,2.9575
2.54154447702835,2.96
2.57575757575758,2.9625
2.56598240469208,2.965
2.55620723362659,2.9675
2.5366568914956,2.97
2.53176930596285,2.9725
2.5366568914956,2.975
2.54643206256109,2.9775
2.56109481915934,2.98
2.56109481915934,2.9825
2.54643206256109,2.985
2.53176930596285,2.9875
2.53176930596285,2.99
2.54154447702835,2.9925
2.54154447702835,2.995
2.56598240469208,2.9975
2.55620723362659,3
2.56109481915934,3.0025
2.52199413489736,3.005
2.5366568914956,3.0075
2.53176930596285,3.01
2.55131964809384,3.0125
2.56598240469208,3.015
2.55620723362659,3.0175
2.5366568914956,3.02
2.54643206256109,3.0225
2.5366568914956,3.025
2.55131964809384,3.0275
2.56109481915934,3.03
2.56598240469208,3.0325
2.55620723362659,3.035
2.54154447702835,3.0375
2.53176930596285,3.04
2.54154447702835,3.0425
2.56109481915934,3.045
2.56598240469208,3.0475
2.56109481915934,3.05
2.55131964809384,3.0525
2.54643206256109,3.055
2.53176930596285,3.0575
2.54643206256109,3.06
2.55620723362659,3.0625
2.56598240469208,3.065
2.56109481915934,3.0675
2.55131964809384,3.07
2.5366568914956,3.0725
2.5366568914956,3.075
2.5366568914956,3.0775
2.55131964809384,3.08
2.56598240469208,3.0825
2.55620723362659,3.085
2.54154447702835,3.0875
2.53176930596285,3.09
2.54154447702835,3.0925
2.54643206256109,3.095
2.57086999022483,3.0975
2.57086999022483,3.1
2.56598240469208,3.1025
2.5366568914956,3.105
2.5366568914956,3.1075
2.54154447702835,3.11
2.56109481915934,3.1125
2.57575757575758,3.115
2.56598240469208,3.1175
2.56109481915934,3.12
2.5366568914956,3.1225
2.53176930596285,3.125
2.54643206256109,3.1275
2.56109481915934,3.13
2.56598240469208,3.1325
2.56109481915934,3.135
2.54154447702835,3.1375
2.5366568914956,3.14
2.54154447702835,3.1425
2.5366568914956,3.145
2.55620723362659,3.1475
2.56598240469208,3.15
2.55620723362659,3.1525
2.54643206256109,3.155
2.5366568914956,3.1575
2.54154447702835,3.16
2.54643206256109,3.1625
2.56109481915934,3.165
2.56109481915934,3.1675
2.55620723362659,3.17
2.53176930596285,3.1725
2.53176930596285,3.175
2.54643206256109,3.1775
2.56598240469208,3.18
2.57086999022483,3.1825
2.56109481915934,3.185
2.55620723362659,3.1875
2.53176930596285,3.19
2.5366568914956,3.1925
2.54154447702835,3.195
2.55620723362659,3.1975
2.56598240469208,3.2
2.55620723362659,3.2025
2.54643206256109,3.205
2.53176930596285,3.2075
2.54154447702835,3.21
2.54643206256109,3.2125
2.56109481915934,3.215
2.56598240469208,3.2175
2.56109481915934,3.22
2.52688172043011,3.2225
2.53176930596285,3.225
2.54154447702835,3.2275
2.55620723362659,3.23
2.56109481915934,3.2325
2.56109481915934,3.235
2.56598240469208,3.2375
2.54154447702835,3.24
2.54154447702835,3.2425
2.54643206256109,3.245
2.56109481915934,3.2475
2.56598240469208,3.25
2.56109481915934,3.2525
2.54643206256109,3.255
2.54154447702835,3.2575
2.5366568914956,3.26
2.5366568914956,3.2625
2.55620723362659,3.265
2.56109481915934,3.2675
2.55620723362659,3.27
2.5366568914956,3.2725
2.53176930596285,3.275
2.5366568914956,3.2775
2.54643206256109,3.28
2.56109481915934,3.2825
2.56109481915934,3.285
2.55620723362659,3.2875
2.52688172043011,3.29
2.53176930596285,3.2925
2.54154447702835,3.295
2.56109481915934,3.2975
2.57086999022483,3.3
2.56598240469208,3.3025
2.56109481915934,3.305
2.54643206256109,3.3075
2.54154447702835,3.31
2.55620723362659,3.3125
2.57086999022483,3.315
2.57086999022483,3.3175
2.56598240469208,3.32
2.54643206256109,3.3225
2.54643206256109,3.325
2.54154447702835,3.3275
2.56109481915934,3.33
2.56109481915934,3.3325
2.56598240469208,3.335
2.55620723362659,3.3375
2.54643206256109,3.34
2.53176930596285,3.3425
2.54154447702835,3.345
2.56109481915934,3.3475
2.57086999022483,3.35
2.56598240469208,3.3525
2.56109481915934,3.355
2.52688172043011,3.3575
2.52688172043011,3.36
2.52688172043011,3.3625
2.52199413489736,3.365
2.51221896383187,3.3675
2.48289345063539,3.37
2.44868035190616,3.3725
2.40469208211144,3.375
2.37536656891496,3.3775
2.37536656891496,3.38
2.39980449657869,3.3825
2.44868035190616,3.385
2.49755620723363,3.3875
2.57086999022483,3.39
2.65884652981427,3.3925
2.75659824046921,3.395
2.82502443792766,3.3975
2.86901270772239,3.4
2.86901270772239,3.4025
2.82991202346041,3.405
2.7663734115347,3.4075
2.72727272727273,3.41
2.67839687194526,3.4125
2.63929618768328,3.415
2.6099706744868,3.4175
2.56598240469208,3.42
2.53176930596285,3.4225
2.46823069403715,3.425
2.45356793743891,3.4275
2.44868035190616,3.43
2.44868035190616,3.4325
2.45845552297165,3.435
2.45356793743891,3.4375
2.45356793743891,3.44
2.44379276637341,3.4425
2.45845552297165,3.445
2.48289345063539,3.4475
2.49755620723363,3.45
2.51221896383187,3.4525
2.50733137829912,3.455
2.50733137829912,3.4575
2.49755620723363,3.46
2.50733137829912,3.4625
2.52688172043011,3.465
2.55131964809384,3.4675
2.54154447702835,3.47
2.54154447702835,3.4725
2.52199413489736,3.475
2.52199413489736,3.4775
2.5366568914956,3.48
2.54643206256109,3.4825
2.56109481915934,3.485
2.55131964809384,3.4875
2.54643206256109,3.49
2.51710654936461,3.4925
2.53176930596285,3.495
2.5366568914956,3.4975
2.55131964809384,3.5
2.56598240469208,3.5025
2.56109481915934,3.505
2.54154447702835,3.5075
2.52688172043011,3.51
2.5366568914956,3.5125
2.5366568914956,3.515
2.57575757575758,3.5175
2.56109481915934,3.52
2.54643206256109,3.5225
2.5366568914956,3.525
2.5366568914956,3.5275
2.54154447702835,3.53
2.55131964809384,3.5325
2.57575757575758,3.535
2.56109481915934,3.5375
2.55131964809384,3.54
2.5366568914956,3.5425
2.5366568914956,3.545
2.54154447702835,3.5475
2.56109481915934,3.55
2.56598240469208,3.5525
2.56109481915934,3.555
2.5366568914956,3.5575
2.52199413489736,3.56
2.5366568914956,3.5625
2.54643206256109,3.565
2.56598240469208,3.5675
2.56109481915934,3.57
2.55620723362659,3.5725
2.5366568914956,3.575
2.53176930596285,3.5775
2.54154447702835,3.58
2.54643206256109,3.5825
2.56109481915934,3.585
2.56109481915934,3.5875
2.56109481915934,3.59
2.54643206256109,3.5925
2.5366568914956,3.595
2.54643206256109,3.5975
2.55131964809384,3.6
2.56598240469208,3.6025
2.56109481915934,3.605
2.54643206256109,3.6075
2.53176930596285,3.61
2.5366568914956,3.6125
2.55620723362659,3.615
2.56598240469208,3.6175
2.57086999022483,3.62
2.56109481915934,3.6225
2.55620723362659,3.625
2.53176930596285,3.6275
2.54643206256109,3.63
2.55131964809384,3.6325
2.57086999022483,3.635
2.57575757575758,3.6375
2.56598240469208,3.64
2.54643206256109,3.6425
2.54643206256109,3.645
2.55620723362659,3.6475
2.56109481915934,3.65
2.58064516129032,3.6525
2.58064516129032,3.655
2.56598240469208,3.6575
2.56109481915934,3.66
2.55131964809384,3.6625
2.56109481915934,3.665
2.57086999022483,3.6675
2.57575757575758,3.67
2.57086999022483,3.6725
2.55620723362659,3.675
2.55131964809384,3.6775
2.54643206256109,3.68
2.55620723362659,3.6825
2.56598240469208,3.685
2.57086999022483,3.6875
2.56109481915934,3.69
2.54154447702835,3.6925
2.53176930596285,3.695
2.54154447702835,3.6975
2.55131964809384,3.7
2.56598240469208,3.7025
2.56598240469208,3.705
2.56598240469208,3.7075
2.54154447702835,3.71
2.5366568914956,3.7125
2.54643206256109,3.715
2.55131964809384,3.7175
2.56598240469208,3.72
2.56598240469208,3.7225
2.55620723362659,3.725
2.54154447702835,3.7275
2.5366568914956,3.73
2.54643206256109,3.7325
2.56109481915934,3.735
2.56598240469208,3.7375
2.55620723362659,3.74
2.55620723362659,3.7425
2.5366568914956,3.745
2.5366568914956,3.7475
2.54643206256109,3.75
2.56598240469208,3.7525
2.56598240469208,3.755
2.55131964809384,3.7575
2.54643206256109,3.76
2.5366568914956,3.7625
2.54154447702835,3.765
2.55620723362659,3.7675
2.56598240469208,3.77
2.56109481915934,3.7725
2.56109481915934,3.775
2.53176930596285,3.7775
2.5366568914956,3.78
2.54154447702835,3.7825
2.55131964809384,3.785
2.56109481915934,3.7875
2.55620723362659,3.79
2.55131964809384,3.7925
2.5366568914956,3.795
2.5366568914956,3.7975
2.53176930596285,3.8
2.56109481915934,3.8025
2.56598240469208,3.805
2.55620723362659,3.8075
2.54643206256109,3.81
2.52688172043011,3.8125
2.53176930596285,3.815
2.5366568914956,3.8175
2.56109481915934,3.82
2.56109481915934,3.8225
2.56598240469208,3.825
2.5366568914956,3.8275
2.53176930596285,3.83
2.5366568914956,3.8325
2.54643206256109,3.835
2.56109481915934,3.8375
2.55620723362659,3.84
2.54643206256109,3.8425
2.52199413489736,3.845
2.5366568914956,3.8475
2.55131964809384,3.85
2.55620723362659,3.8525
2.56598240469208,3.855
2.56109481915934,3.8575
2.54643206256109,3.86
2.54643206256109,3.8625
2.54154447702835,3.865
2.55620723362659,3.8675
2.57575757575758,3.87
2.56598240469208,3.8725
2.55620723362659,3.875
2.54154447702835,3.8775
2.5366568914956,3.88
2.54643206256109,3.8825
2.55131964809384,3.885
2.57086999022483,3.8875
2.56109481915934,3.89
2.55620723362659,3.8925
2.5366568914956,3.895
2.53176930596285,3.8975
2.54154447702835,3.9
2.54643206256109,3.9025
2.56598240469208,3.905
2.56109481915934,3.9075
2.54154447702835,3.91
2.5366568914956,3.9125
2.5366568914956,3.915
2.5366568914956,3.9175
2.56598240469208,3.92
2.56598240469208,3.9225
2.55620723362659,3.925
2.5366568914956,3.9275
2.53176930596285,3.93
2.54154447702835,3.9325
2.56109481915934,3.935
2.55620723362659,3.9375
2.56598240469208,3.94
2.56598240469208,3.9425
2.55131964809384,3.945
2.5366568914956,3.9475
2.54643206256109,3.95
2.55620723362659,3.9525
2.55620723362659,3.955
2.56109481915934,3.9575
2.55131964809384,3.96
2.53176930596285,3.9625
2.5366568914956,3.965
2.54643206256109,3.9675
2.55620723362659,3.97
2.56598240469208,3.9725
2.55620723362659,3.975
2.54154447702835,3.9775
2.52688172043011,3.98
2.5366568914956,3.9825
2.53176930596285,3.985
2.56109481915934,3.9875
2.56598240469208,3.99
2.56109481915934,3.9925
2.53176930596285,3.995
2.5366568914956,3.9975
2.54643206256109,4
2.56109481915934,4.0025
2.57086999022483,4.005
2.56598240469208,4.0075
2.54643206256109,4.01
2.52688172043011,4.0125
2.5366568914956,4.015
2.54154447702835,4.0175
2.55620723362659,4.02
2.56598240469208,4.0225
2.55620723362659,4.025
2.54643206256109,4.0275
2.5366568914956,4.03
2.53176930596285,4.0325
2.54154447702835,4.035
2.54643206256109,4.0375
2.56109481915934,4.04
2.55620723362659,4.0425
2.55131964809384,4.045
2.52688172043011,4.0475
2.54154447702835,4.05
2.54643206256109,4.0525
2.57086999022483,4.055
2.57086999022483,4.0575
2.56598240469208,4.06
2.54154447702835,4.0625
2.5366568914956,4.065
2.54643206256109,4.0675
2.55620723362659,4.07
2.57086999022483,4.0725
2.56598240469208,4.075
2.55620723362659,4.0775
2.5366568914956,4.08
2.5366568914956,4.0825
2.54643206256109,4.085
2.56109481915934,4.0875
2.56598240469208,4.09
2.55620723362659,4.0925
2.55620723362659,4.095
2.53176930596285,4.0975
2.5366568914956,4.1
2.55131964809384,4.1025
2.56598240469208,4.105
2.56598240469208,4.1075
2.55131964809384,4.11
2.5366568914956,4.1125
2.51221896383187,4.115
2.50244379276637,4.1175
2.49266862170088,4.12
2.48289345063539,4.1225
2.45356793743891,4.125
2.42913000977517,4.1275
2.37536656891496,4.13
2.36070381231672,4.1325
2.38514173998045,4.135
2.43401759530792,4.1375
2.51710654936461,4.14
2.59530791788856,4.1425
2.69794721407625,4.145
2.7761485826002,4.1475
2.82991202346041,4.15
2.85923753665689,4.1525
2.87878787878788,4.155
2.85434995112414,4.1575
2.80547409579668,4.16
2.75659824046921,4.1625
2.67350928641251,4.165
2.63440860215054,4.1675
2.59530791788856,4.17
2.58553274682307,4.1725
2.5366568914956,4.175
2.48778103616813,4.1775
2.46823069403715,4.18
2.42913000977517,4.1825
2.42913000977517,4.185
2.43890518084066,4.1875
2.4633431085044,4.19
2.45356793743891,4.1925
2.45845552297165,4.195
2.43401759530792,4.1975
2.45356793743891,4.2
2.46823069403715,4.2025
2.49266862170088,4.205
2.51221896383187,4.2075
2.51221896383187,4.21
2.51221896383187,4.2125
2.50244379276637,4.215
2.50733137829912,4.2175
2.53176930596285,4.22
2.54154447702835,4.2225
2.54643206256109,4.225
2.54154447702835,4.2275
2.52199413489736,4.23
2.51710654936461,4.2325
2.52688172043011,4.235
2.53176930596285,4.2375
2.57086999022483,4.24
2.56109481915934,4.2425
2.56109481915934,4.245
2.53176930596285,4.2475
2.53176930596285,4.25
2.54154447702835,4.2525
2.56109481915934,4.255
2.56109481915934,4.2575
2.56109481915934,4.26
2.55620723362659,4.2625
2.5366568914956,4.265
2.5366568914956,4.2675
2.54154447702835,4.27
2.57086999022483,4.2725
2.56598240469208,4.275
2.56109481915934,4.2775
2.54643206256109,4.28
2.5366568914956,4.2825
2.5366568914956,4.285
2.54643206256109,4.2875
2.55620723362659,4.29
2.56598240469208,4.2925
2.55620723362659,4.295
2.55131964809384,4.2975
2.5366568914956,4.3
2.54154447702835,4.3025
2.55620723362659,4.305
2.55620723362659,4.3075
2.56109481915934,4.31
2.55620723362659,4.3125
2.52688172043011,4.315
2.5366568914956,4.3175
2.54154447702835,4.32
2.55620723362659,4.3225
2.56598240469208,4.325
2.56109481915934,4.3275
2.55131964809384,4.33
2.5366568914956,4.3325
2.5366568914956,4.335
2.54643206256109,4.3375
2.56598240469208,4.34
2.56598240469208,4.3425
2.55620723362659,4.345
2.5366568914956,4.3475
2.53176930596285,4.35
2.54154447702835,4.3525
2.54643206256109,4.355
2.55620723362659,4.3575
2.56598240469208,4.36
2.55131964809384,4.3625
2.52688172043011,4.365
2.5366568914956,4.3675
2.54643206256109,4.37
2.55131964809384,4.3725
2.58553274682307,4.375
2.56598240469208,4.3775
2.56109481915934,4.38
2.5366568914956,4.3825
2.54643206256109,4.385
2.55620723362659,4.3875
2.56598240469208,4.39
2.58064516129032,4.3925
2.57086999022483,4.395
2.56109481915934,4.3975
2.54643206256109,4.4
2.55131964809384,4.4025
2.55131964809384,4.405
2.57086999022483,4.4075
2.58064516129032,4.41
2.57575757575758,4.4125
2.56109481915934,4.415
2.55131964809384,4.4175
2.55620723362659,4.42
2.56109481915934,4.4225
2.58064516129032,4.425
2.57575757575758,4.4275
2.56109481915934,4.43
2.5366568914956,4.4325
2.54643206256109,4.435
2.55131964809384,4.4375
2.56598240469208,4.44
2.58064516129032,4.4425
2.56598240469208,4.445
2.56109481915934,4.4475
2.53176930596285,4.45
2.54154447702835,4.4525
2.54643206256109,4.455
2.55620723362659,4.4575
2.57086999022483,4.46
2.56109481915934,4.4625
2.55131964809384,4.465
2.53176930596285,4.4675
2.54154447702835,4.47
2.54154447702835,4.4725
2.57086999022483,4.475
2.57086999022483,4.4775
2.56109481915934,4.48
2.55131964809384,4.4825
2.53176930596285,4.485
2.54154447702835,4.4875
2.55620723362659,4.49
2.57086999022483,4.4925
2.56109481915934,4.495
2.56109481915934,4.4975
2.53176930596285,4.5
2.5366568914956,4.5025
2.54643206256109,4.505
2.56109481915934,4.5075
2.57086999022483,4.51
2.55620723362659,4.5125
2.54154447702835,4.515
2.52688172043011,4.5175
2.53176930596285,4.52
2.54154447702835,4.5225
2.56598240469208,4.525
2.56109481915934,4.5275
2.55131964809384,4.53
2.54154447702835,4.5325
2.52688172043011,4.535
2.5366568914956,4.5375
2.54154447702835,4.54
2.56109481915934,4.5425
2.56109481915934,4.545
2.55131964809384,4.5475
2.52688172043011,4.55
2.53176930596285,4.5525
2.54154447702835,4.555
2.55620723362659,4.5575
2.56109481915934,4.56
2.55620723362659,4.5625
2.55131964809384,4.565
2.54154447702835,4.5675
2.53176930596285,4.57
2.54154447702835,4.5725
2.55620723362659,4.575
2.56109481915934,4.5775
2.55620723362659,4.58
2.54643206256109,4.5825
2.5366568914956,4.585
2.5366568914956,4.5875
2.5366568914956,4.59
2.56109481915934,4.5925
2.56598240469208,4.595
2.55620723362659,4.5975
2.53176930596285,4.6
2.53176930596285,4.6025
2.54154447702835,4.605
2.54643206256109,4.6075
2.57086999022483,4.61
2.56109481915934,4.6125
2.55620723362659,4.615
2.52688172043011,4.6175
2.53176930596285,4.62
2.54643206256109,4.6225
2.55620723362659,4.625
2.57086999022483,4.6275
2.56598240469208,4.63
2.55131964809384,4.6325
2.5366568914956,4.635
2.54154447702835,4.6375
2.55620723362659,4.64
2.56109481915934,4.6425
2.56598240469208,4.645
2.56109481915934,4.6475
2.54154447702835,4.65
2.53176930596285,4.6525
2.54154447702835,4.655
2.54643206256109,4.6575
2.57086999022483,4.66
2.56598240469208,4.6625
2.55620723362659,4.665
2.54154447702835,4.6675
2.5366568914956,4.67
2.54154447702835,4.6725
2.55131964809384,4.675
2.57575757575758,4.6775
2.56109481915934,4.68
2.55131964809384,4.6825
2.5366568914956,4.685
2.5366568914956,4.6875
2.54154447702835,4.69
2.57086999022483,4.6925
2.56598240469208,4.695
2.56109481915934,4.6975
2.54154447702835,4.7
2.52688172043011,4.7025
2.54154447702835,4.705
2.55131964809384,4.7075
2.57575757575758,4.71
2.56598240469208,4.7125
2.56109481915934,4.715
2.54643206256109,4.7175
2.53176930596285,4.72
2.54154447702835,4.7225
2.55620723362659,4.725
2.57575757575758,4.7275
2.56109481915934,4.73
2.56598240469208,4.7325
2.54154447702835,4.735
2.5366568914956,4.7375
2.54154447702835,4.74
2.55620723362659,4.7425
2.57086999022483,4.745
2.56109481915934,4.7475
2.54154447702835,4.75
2.52688172043011,4.7525
2.53176930596285,4.755
2.53176930596285,4.7575
2.55131964809384,4.76
2.56598240469208,4.7625
2.55620723362659,4.765
2.55131964809384,4.7675
2.53176930596285,4.77
2.5366568914956,4.7725
2.54643206256109,4.775
2.56598240469208,4.7775
2.56109481915934,4.78
2.54643206256109,4.7825
2.54643206256109,4.785
2.52688172043011,4.7875
2.5366568914956,4.79
2.54643206256109,4.7925
2.56598240469208,4.795
2.56109481915934,4.7975
2.54643206256109,4.8
2.55131964809384,4.8025
2.5366568914956,4.805
2.54643206256109,4.8075
2.56598240469208,4.81
2.57086999022483,4.8125
2.56598240469208,4.815
2.56109481915934,4.8175
2.5366568914956,4.82
2.54643206256109,4.8225
2.54643206256109,4.825
2.57086999022483,4.8275
2.56598240469208,4.83
2.56109481915934,4.8325
2.54154447702835,4.835
2.5366568914956,4.8375
2.54154447702835,4.84
2.54643206256109,4.8425
2.57086999022483,4.845
2.56598240469208,4.8475
2.56109481915934,4.85
2.54154447702835,4.8525
2.5366568914956,4.855
2.54643206256109,4.8575
2.56109481915934,4.86
2.56109481915934,4.8625
2.55131964809384,4.865
2.52688172043011,4.8675
2.49755620723363,4.87
2.48778103616813,4.8725
2.4633431085044,4.875
2.4633431085044,4.8775
2.44379276637341,4.88
2.40469208211144,4.8825
2.37047898338221,4.885
2.35581622678397,4.8875
2.39491691104594,4.89
2.44868035190616,4.8925
2.53176930596285,4.895
2.62463343108504,4.8975
2.72238514173998,4.9
2.79081133919844,4.9025
2.82502443792766,4.905
2.84457478005865,4.9075
2.8396871945259,4.91
2.84457478005865,4.9125
2.78103616813294,4.915
2.70772238514174,4.9175
2.64418377321603,4.92
2.60019550342131,4.9225
2.56598240469208,4.925
2.55131964809384,4.9275
2.52688172043011,4.93
2.49266862170088,4.9325
2.4633431085044,4.935
2.43401759530792,4.9375
2.44379276637341,4.94
2.44868035190616,4.9425
2.47800586510264,4.945
2.48289345063539,4.9475
2.47800586510264,4.95
2.47311827956989,4.9525
2.46823069403715,4.955
2.48778103616813,4.9575
2.49266862170088,4.96
2.52688172043011,4.9625
2.52688172043011,4.965
2.53176930596285,4.9675
2.49755620723363,4.97
2.51221896383187,4.9725
2.52199413489736,4.975
2.54154447702835,4.9775
2.55131964809384,4.98
2.55131964809384,4.9825
2.54154447702835,4.985
2.52199413489736,4.9875
2.53176930596285,4.99
2.54154447702835,4.9925
2.56598240469208,4.995
2.56109481915934,4.9975
2.55131964809384,5
2.54154447702835,5.0025
2.5366568914956,5.005
2.5366568914956,5.0075
2.54643206256109,5.01
2.56109481915934,5.0125
2.56598240469208,5.015
2.55620723362659,5.0175
2.5366568914956,5.02
2.5366568914956,5.0225
2.54154447702835,5.025
2.56109481915934,5.0275
2.56598240469208,5.03
2.56598240469208,5.0325
2.54643206256109,5.035
2.53176930596285,5.0375
2.53176930596285,5.04
2.54154447702835,5.0425
2.56109481915934,5.045
2.56598240469208,5.0475
2.56109481915934,5.05
2.55131964809384,5.0525
2.52688172043011,5.055
2.5366568914956,5.0575
2.53176930596285,5.06
2.56109481915934,5.0625
2.56598240469208,5.065
2.55620723362659,5.0675
2.5366568914956,5.07
2.5366568914956,5.0725
2.54154447702835,5.075
2.54154447702835,5.0775
2.57086999022483,5.08
2.56598240469208,5.0825
2.56109481915934,5.085
2.54154447702835,5.0875
2.53176930596285,5.09
2.54154447702835,5.0925
2.55131964809384,5.095
2.57575757575758,5.0975
2.56109481915934,5.1
2.55620723362659,5.1025
2.54643206256109,5.105
2.5366568914956,5.1075
2.54643206256109,5.11
2.56598240469208,5.1125
2.57086999022483,5.115
2.56109481915934,5.1175
2.55131964809384,5.12
2.55131964809384,5.1225
2.54643206256109,5.125
2.55620723362659,5.1275
2.56109481915934,5.13
2.57086999022483,5.1325
2.56598240469208,5.135
2.55131964809384,5.1375
2.54154447702835,5.14
2.55131964809384,5.1425
2.56598240469208,5.145
2.57086999022483,5.1475
2.57575757575758,5.15
2.56598240469208,5.1525
2.55131964809384,5.155
2.55131964809384,5.1575
2.56109481915934,5.16
2.56109481915934,5.1625
2.58064516129032,5.165
2.57575757575758,5.1675
2.55620723362659,5.17
2.54643206256109,5.1725
2.54643206256109,5.175
2.55620723362659,5.1775
2.56109481915934,5.18
2.57086999022483,5.1825
2.56109481915934,5.185
2.55131964809384,5.1875
2.5366568914956,5.19
2.54154447702835,5.1925
2.55620723362659,5.195
2.56109481915934,5.1975
2.56598240469208,5.2
2.56598240469208,5.2025
2.52688172043011,5.205
2.5366568914956,5.2075
2.54154447702835,5.21
2.55620723362659,5.2125
2.57575757575758,5.215
2.56109481915934,5.2175
2.55620723362659,5.22
2.54643206256109,5.2225
2.5366568914956,5.225
2.54154447702835,5.2275
2.55131964809384,5.23
2.57086999022483,5.2325
2.56109481915934,5.235
2.55131964809384,5.2375
2.52688172043011,5.24
2.54154447702835,5.2425
2.5366568914956,5.245
2.55620723362659,5.2475
2.56598240469208,5.25
2.56109481915934,5.2525
2.5366568914956,5.255
2.53176930596285,5.2575
2.54154447702835,5.26
2.55131964809384,5.2625
2.55620723362659,5.265
2.56598240469208,5.2675
2.56109481915934,5.27
2.54643206256109,5.2725
2.53176930596285,5.275
2.54154447702835,5.2775
2.55131964809384,5.28
2.56598240469208,5.2825
2.56109481915934,5.285
2.55131964809384,5.2875
2.5366568914956,5.29
2.53176930596285,5.2925
2.54154447702835,5.295
2.56109481915934,5.2975
2.56109481915934,5.3
2.55131964809384,5.3025
2.54643206256109,5.305
2.5366568914956,5.3075
2.5366568914956,5.31
2.55620723362659,5.3125
2.55620723362659,5.315
2.56109481915934,5.3175
2.55131964809384,5.32
2.52688172043011,5.3225
2.53176930596285,5.325
2.54154447702835,5.3275
2.55131964809384,5.33
2.57086999022483,5.3325
2.56109481915934,5.335
2.56109481915934,5.3375
2.52199413489736,5.34
2.53176930596285,5.3425
2.54154447702835,5.345
2.56598240469208,5.3475
2.56598240469208,5.35
2.56109481915934,5.3525
2.55131964809384,5.355
2.53176930596285,5.3575
2.5366568914956,5.36
2.55131964809384,5.3625
2.56598240469208,5.365
2.56598240469208,5.3675
2.55620723362659,5.37
2.54154447702835,5.3725
2.53176930596285,5.375
2.54154447702835,5.3775
2.55131964809384,5.38
2.56109481915934,5.3825
2.56598240469208,5.385
2.55131964809384,5.3875
2.52688172043011,5.39
2.5366568914956,5.3925
2.54154447702835,5.395
2.55131964809384,5.3975
2.56598240469208,5.4
2.56598240469208,5.4025
2.54154447702835,5.405
2.54154447702835,5.4075
2.54154447702835,5.41
2.53176930596285,5.4125
2.55620723362659,5.415
2.57086999022483,5.4175
2.56109481915934,5.42
2.55620723362659,5.4225
2.5366568914956,5.425
2.54154447702835,5.4275
2.55131964809384,5.43
2.56598240469208,5.4325
2.56598240469208,5.435
2.55620723362659,5.4375
2.54643206256109,5.44
2.53176930596285,5.4425
2.54154447702835,5.445
2.54643206256109,5.4475
2.58064516129032,5.45
2.56109481915934,5.4525
2.55131964809384,5.455
2.5366568914956,5.4575
2.5366568914956,5.46
2.54643206256109,5.4625
2.56598240469208,5.465
2.56598240469208,5.4675
2.56109481915934,5.47
2.54643206256109,5.4725
2.52688172043011,5.475
2.5366568914956,5.4775
2.5366568914956,5.48
2.56598240469208,5.4825
2.57086999022483,5.485
2.55620723362659,5.4875
2.5366568914956,5.49
2.53176930596285,5.4925
2.54154447702835,5.495
2.54643206256109,5.4975
2.56109481915934,5.5
2.56598240469208,5.5025
2.56109481915934,5.505
2.5366568914956,5.5075
2.5366568914956,5.51
2.54154447702835,5.5125
2.56598240469208,5.515
2.58064516129032,5.5175
2.56109481915934,5.52
2.55620723362659,5.5225
2.5366568914956,5.525
2.5366568914956,5.5275
2.5366568914956,5.53
2.55131964809384,5.5325
2.56598240469208,5.535
2.56109481915934,5.5375
2.54643206256109,5.54
2.52199413489736,5.5425
2.54154447702835,5.545
2.54643206256109,5.5475
2.55131964809384,5.55
2.56598240469208,5.5525
2.55620723362659,5.555
2.53176930596285,5.5575
2.5366568914956,5.56
2.54154447702835,5.5625
2.54643206256109,5.565
2.55620723362659,5.5675
2.56598240469208,5.57
2.56109481915934,5.5725
2.5366568914956,5.575
2.53176930596285,5.5775
2.54643206256109,5.58
2.56109481915934,5.5825
2.56598240469208,5.585
2.56109481915934,5.5875
2.54154447702835,5.59
2.5366568914956,5.5925
2.53176930596285,5.595
2.54643206256109,5.5975
2.55620723362659,5.6
2.56109481915934,5.6025
2.55620723362659,5.605
2.5366568914956,5.6075
2.53176930596285,5.61
2.54154447702835,5.6125
2.54643206256109,5.615
2.57086999022483,5.6175
2.56598240469208,5.62
2.56109481915934,5.6225
2.5366568914956,5.625
2.5366568914956,5.6275
2.54643206256109,5.63
2.56109481915934,5.6325
2.56598240469208,5.635
2.56598240469208,5.6375
2.54643206256109,5.64
2.5366568914956,5.6425
2.5366568914956,5.645
2.54643206256109,5.6475
2.57086999022483,5.65
2.56598240469208,5.6525
2.56598240469208,5.655
2.54643206256109,5.6575
2.54154447702835,5.66
2.5366568914956,5.6625
2.54154447702835,5.665
2.55620723362659,5.6675
2.56598240469208,5.67
2.55620723362659,5.6725
2.54154447702835,5.675
2.52688172043011,5.6775
2.53176930596285,5.68
2.5366568914956,5.6825
2.54154447702835,5.685
2.50733137829912,5.6875
2.46823069403715,5.69
2.42424242424242,5.6925
2.39980449657869,5.695
2.3802541544477,5.6975
2.3802541544477,5.7
2.40469208211144,5.7025
2.42913000977517,5.705
2.46823069403715,5.7075
2.53176930596285,5.71
2.64418377321603,5.7125
2.75171065493646,5.715
2.82013685239492,5.7175
2.85434995112414,5.72
2.8494623655914,5.7225
2.82991202346041,5.725
2.7761485826002,5.7275
2.72727272727273,5.73
2.68328445747801,5.7325
2.64418377321603,5.735
2.6099706744868,5.7375
2.56109481915934,5.74
2.52199413489736,5.7425
2.48289345063539,5.745
2.47311827956989,5.7475
2.47311827956989,5.75
2.46823069403715,5.7525
2.47800586510264,5.755
2.47311827956989,5.7575
2.45845552297165,5.76
2.4633431085044,5.7625
2.47800586510264,5.765
2.50244379276637,5.7675
2.52199413489736,5.77
2.51710654936461,5.7725
2.50733137829912,5.775
2.50733137829912,5.7775
2.50733137829912,5.78
2.51221896383187,5.7825
2.54154447702835,5.785
2.54643206256109,5.7875
2.54154447702835,5.79
2.53176930596285,5.7925
2.51710654936461,5.795
2.52688172043011,5.7975
2.54154447702835,5.8
2.54643206256109,5.8025
2.55620723362659,5.805
2.55131964809384,5.8075
2.52688172043011,5.81
2.52688172043011,5.8125
2.5366568914956,5.815
2.54154447702835,5.8175
2.56598240469208,5.82
2.56109481915934,5.8225
2.54154447702835,5.825
2.52688172043011,5.8275
2.5366568914956,5.83
2.5366568914956,5.8325
2.55620723362659,5.835
2.56598240469208,5.8375
2.55620723362659,5.84
2.55620723362659,5.8425
2.52688172043011,5.845
2.54154447702835,5.8475
2.55620723362659,5.85
2.56598240469208,5.8525
2.56598240469208,5.855
2.56109481915934,5.8575
2.53176930596285,5.86
2.53176930596285,5.8625
2.54154447702835,5.865
2.55131964809384,5.8675
2.56598240469208,5.87
2.56109481915934,5.8725
2.55620723362659,5.875
2.53176930596285,5.8775
2.5366568914956,5.88
2.54154447702835,5.8825
2.56109481915934,5.885
2.56598240469208,5.8875
2.56109481915934,5.89
2.54154447702835,5.8925
2.52688172043011,5.895
2.5366568914956,5.8975
2.5366568914956,5.9
2.55131964809384,5.9025
2.56598240469208,5.905
2.56109481915934,5.9075
2.54643206256109,5.91
2.5366568914956,5.9125
2.54154447702835,5.915
2.54154447702835,5.9175
2.56598240469208,5.92
2.56598240469208,5.9225
2.56598240469208,5.925
2.53176930596285,5.9275
2.5366568914956,5.93
2.54643206256109,5.9325
2.54643206256109,5.935
2.56598240469208,5.9375
2.56598240469208,5.94
2.55131964809384,5.9425
2.5366568914956,5.945
2.54154447702835,5.9475
2.55131964809384,5.95
2.57086999022483,5.9525
2.57575757575758,5.955
2.56598240469208,5.9575
2.56598240469208,5.96
2.55620723362659,5.9625
2.54643206256109,5.965
2.55620723362659,5.9675
2.58064516129032,5.97
2.58064516129032,5.9725
2.57086999022483,5.975
2.55131964809384,5.9775
2.55131964809384,5.98
2.55620723362659,5.9825
2.56598240469208,5.985
2.58064516129032,5.9875
2.57575757575758,5.99
2.57575757575758,5.9925
2.5366568914956,5.995
2.54154447702835,5.9975
2.54643206256109,6
2.55620723362659,6.0025
2.56598240469208,6.005
2.56109481915934,6.0075
2.56109481915934,6.01
2.54154447702835,6.0125
2.5366568914956,6.015
2.5366568914956,6.0175
2.56109481915934,6.02
2.56598240469208,6.0225
2.55620723362659,6.025
2.54643206256109,6.0275
2.53176930596285,6.03
2.54154447702835,6.0325
2.55620723362659,6.035
2.55620723362659,6.0375
2.56109481915934,6.04
2.56109481915934,6.0425
2.5366568914956,6.045
2.53176930596285,6.0475
2.54154447702835,6.05
2.55620723362659,6.0525
2.57086999022483,6.055
2.56598240469208,6.0575
2.56598240469208,6.06
2.5366568914956,6.0625
2.5366568914956,6.065
2.54643206256109,6.0675
2.56598240469208,6.07
2.57086999022483,6.0725
2.56109481915934,6.075
2.56109481915934,6.0775
2.54643206256109,6.08
2.54154447702835,6.0825
2.54154447702835,6.085
2.57086999022483,6.0875
2.56598240469208,6.09
2.55620723362659,6.0925
2.5366568914956,6.095
2.53176930596285,6.0975
2.54154447702835,6.1
2.55620723362659,6.1025
2.57086999022483,6.105
2.56109481915934,6.1075
2.54643206256109,6.11
2.52688172043011,6.1125
2.53176930596285,6.115
2.54154447702835,6.1175
2.55131964809384,6.12
2.56598240469208,6.1225
2.55620723362659,6.125
2.55620723362659,6.1275
2.52688172043011,6.13
2.5366568914956,6.1325
2.53176930596285,6.135
2.54643206256109,6.1375
2.56598240469208,6.14
2.55620723362659,6.1425
2.5366568914956,6.145
2.52199413489736,6.1475
2.5366568914956,6.15
2.5366568914956,6.1525
2.56109481915934,6.155
2.56109481915934,6.1575
2.55131964809384,6.16
2.52688172043011,6.1625
2.53176930596285,6.165
2.5366568914956,6.1675
2.55131964809384,6.17
2.55131964809384,6.1725
2.56109481915934,6.175
2.54643206256109,6.1775
2.5366568914956,6.18
2.53176930596285,6.1825
2.54643206256109,6.185
2.54643206256109,6.1875
2.56598240469208,6.19
2.56109481915934,6.1925
2.56109481915934,6.195
2.52199413489736,6.1975
2.54154447702835,6.2
2.54154447702835,6.2025
2.55620723362659,6.205
2.56598240469208,6.2075
2.55620723362659,6.21
2.54154447702835,6.2125
2.5366568914956,6.215
2.54154447702835,6.2175
2.55131964809384,6.22
2.56109481915934,6.2225
2.56598240469208,6.225
2.55620723362659,6.2275
2.53176930596285,6.23
2.5366568914956,6.2325
2.54154447702835,6.235
2.54643206256109,6.2375
2.56598240469208,6.24
2.56109481915934,6.2425
2.55131964809384,6.245
2.53176930596285,6.2475
2.5366568914956,6.25
2.55131964809384,6.2525
2.55620723362659,6.255
2.57086999022483,6.2575
2.56109481915934,6.26
2.54154447702835,6.2625
2.54154447702835,6.265
2.5366568914956,6.2675
2.54643206256109,6.27
2.57086999022483,6.2725
2.56598240469208,6.275
2.56109481915934,6.2775
2.54154447702835,6.28
2.53176930596285,6.2825
2.54154447702835,6.285
2.55131964809384,6.2875
2.56109481915934,6.29
2.56109481915934,6.2925
2.54643206256109,6.295
2.5366568914956,6.2975
2.53176930596285,6.3
2.54154447702835,6.3025
2.55620723362659,6.305
2.56598240469208,6.3075
2.56109481915934,6.31
2.55131964809384,6.3125
2.52688172043011,6.315
2.54154447702835,6.3175
2.55620723362659,6.32
2.55620723362659,6.3225
2.57086999022483,6.325
2.56109481915934,6.3275
2.54643206256109,6.33
2.53176930596285,6.3325
2.54154447702835,6.335
2.55131964809384,6.3375
2.57086999022483,6.34
2.56598240469208,6.3425
2.56598240469208,6.345
2.54154447702835,6.3475
2.53176930596285,6.35
2.54154447702835,6.3525
2.55620723362659,6.355
2.58553274682307,6.3575
2.56109481915934,6.36
2.55131964809384,6.3625
2.52688172043011,6.365
2.5366568914956,6.3675
2.54643206256109,6.37
2.55620723362659,6.3725
2.56598240469208,6.375
2.56109481915934,6.3775
2.54643206256109,6.38
2.52688172043011,6.3825
2.54154447702835,6.385
2.54154447702835,6.3875
2.55620723362659,6.39
2.56598240469208,6.3925
2.55620723362659,6.395
2.5366568914956,6.3975
2.53176930596285,6.4
2.54154447702835,6.4025
2.55620723362659,6.405
2.57575757575758,6.4075
2.56598240469208,6.41
2.54643206256109,6.4125
2.54154447702835,6.415
2.53176930596285,6.4175
2.54154447702835,6.42
2.56109481915934,6.4225
2.56598240469208,6.425
2.56109481915934,6.4275
2.54643206256109,6.43
2.5366568914956,6.4325
2.5366568914956,6.435
2.54643206256109,6.4375
2.56109481915934,6.44
2.57086999022483,6.4425
2.56109481915934,6.445
2.5366568914956,6.4475
2.5366568914956,6.45
2.54154447702835,6.4525
2.54154447702835,6.455
2.57086999022483,6.4575
2.56598240469208,6.46
2.55131964809384,6.4625
2.52688172043011,6.465
2.53176930596285,6.4675
2.5366568914956,6.47
2.54643206256109,6.4725
2.56598240469208,6.475
2.55620723362659,6.4775
2.54154447702835,6.48
2.52199413489736,6.4825
2.5366568914956,6.485
2.54643206256109,6.4875
2.55620723362659,6.49
2.57086999022483,6.4925
2.56109481915934,6.495
2.55620723362659,6.4975
2.53176930596285,6.5
2.54154447702835,6.5025
2.54154447702835,6.505
2.58064516129032,6.5075
2.56598240469208,6.51
2.56109481915934,6.5125
2.55620723362659,6.515
2.5366568914956,6.5175
2.54154447702835,6.52
2.54643206256109,6.5225
2.57086999022483,6.525
2.56598240469208,6.5275
2.54643206256109,6.53
2.53176930596285,6.5325
2.53176930596285,6.535
2.54643206256109,6.5375
2.55131964809384,6.54
2.56598240469208,6.5425
2.56109481915934,6.545
2.54154447702835,6.5475
2.52199413489736,6.55
2.52199413489736,6.5525
2.52688172043011,6.555
2.51221896383187,6.5575
2.50244379276637,6.56
2.46823069403715,6.5625
2.42424242424242,6.565
2.3802541544477,6.5675
2.37047898338221,6.57
2.37047898338221,6.5725
2.42424242424242,6.575
2.45845552297165,6.5775
2.50733137829912,6.58
2.58064516129032,6.5825
2.68817204301075,6.585
2.7761485826002,6.5875
2.83479960899316,6.59
2.88367546432063,6.5925
2.85923753665689,6.595
2.82502443792766,6.5975
2.75659824046921,6.6
2.71260997067449,6.6025
2.66862170087977,6.605
2.63440860215054,6.6075
2.60019550342131,6.61
2.55620723362659,6.6125
2.51221896383187,6.615
2.46823069403715,6.6175
2.45356793743891,6.62
2.44868035190616,6.6225
2.47311827956989,6.625
2.46823069403715,6.6275
2.4633431085044,6.63
2.45356793743891,6.6325
2.45356793743891,6.635
2.46823069403715,6.6375
2.48289345063539,6.64
2.50244379276637,6.6425
2.51221896383187,6.645
2.51710654936461,6.6475
2.50244379276637,6.65
2.50244379276637,6.6525
2.51710654936461,6.655
2.52688172043011,6.6575
2.55131964809384,6.66
2.54643206256109,6.6625
2.53176930596285,6.665
2.52199413489736,6.6675
2.52199413489736,6.67
2.53176930596285,6.6725
2.54643206256109,6.675
2.56109481915934,6.6775
2.55131964809384,6.68
2.5366568914956,6.6825
2.52688172043011,6.685
2.53176930596285,6.6875
2.54643206256109,6.69
2.57086999022483,6.6925
2.56109481915934,6.695
2.55131964809384,6.6975
2.52688172043011,6.7
2.53176930596285,6.7025
2.54154447702835,6.705
2.56109481915934,6.7075
2.56598240469208,6.71
2.56109481915934,6.7125
2.55131964809384,6.715
2.55131964809384,6.7175
2.5366568914956,6.72
2.54643206256109,6.7225
2.56109481915934,6.725
2.57086999022483,6.7275
2.56109481915934,6.73
2.54643206256109,6.7325
2.52688172043011,6.735
2.5366568914956,6.7375
2.5366568914956,6.74
2.55620723362659,6.7425
2.56109481915934,6.745
2.55620723362659,6.7475
2.54643206256109,6.75
2.53176930596285,6.7525
2.54154447702835,6.755
2.55131964809384,6.7575
2.55620723362659,6.76
2.56109481915934,6.7625
2.56109481915934,6.765
2.54154447702835,6.7675
2.53176930596285,6.77
2.54154447702835,6.7725
2.54643206256109,6.775
2.55131964809384,6.7775
2.56109481915934,6.78
2.55620723362659,6.7825
2.53176930596285,6.785
2.5366568914956,6.7875
2.54643206256109,6.79
2.55620723362659,6.7925
2.56598240469208,6.795
2.56109481915934,6.7975
2.54154447702835,6.8
2.5366568914956,6.8025
2.54154447702835,6.805
2.54643206256109,6.8075
2.57086999022483,6.81
2.57086999022483,6.8125
2.56109481915934,6.815
2.54643206256109,6.8175
2.54154447702835,6.82
2.54643206256109,6.8225
2.56109481915934,6.825
2.57086999022483,6.8275
2.57086999022483,6.83
2.58064516129032,6.8325
2.56109481915934,6.835
2.54643206256109,6.8375
2.55131964809384,6.84
2.57575757575758,6.8425
2.58064516129032,6.845
2.57575757575758,6.8475
2.56598240469208,6.85
2.55620723362659,6.8525
2.55620723362659,6.855
2.56109481915934,6.8575
2.59042033235582,6.86
2.57575757575758,6.8625
2.57086999022483,6.865
2.56598240469208,6.8675
2.54154447702835,6.87
2.54643206256109,6.8725
2.54154447702835,6.875
2.56109481915934,6.8775
2.56598240469208,6.88
2.57086999022483,6.8825
2.54154447702835,6.885
2.53176930596285,6.8875
2.54154447702835,6.89
2.54643206256109,6.8925
2.55620723362659,6.895
2.56109481915934,6.8975
2.54154447702835,6.9
2.52688172043011,6.9025
2.5366568914956,6.905
2.54154447702835,6.9075
2.57575757575758,6.91
2.57086999022483,6.9125
2.56109481915934,6.915
2.55131964809384,6.9175
2.54154447702835,6.92
2.54154447702835,6.9225
2.55131964809384,6.925
2.56109481915934,6.9275
2.56598240469208,6.93
2.55620723362659,6.9325
2.54154447702835,6.935
2.5366568914956,6.9375
2.54643206256109,6.94
2.55131964809384,6.9425
2.56109481915934,6.945
2.56598240469208,6.9475
2.57086999022483,6.95
2.52688172043011,6.9525
2.53176930596285,6.955
2.54154447702835,6.9575
2.55620723362659,6.96
2.56109481915934,6.9625
2.55620723362659,6.965
2.54154447702835,6.9675
2.53176930596285,6.97
2.5366568914956,6.9725
2.54154447702835,6.975
2.56598240469208,6.9775
2.56109481915934,6.98
2.55620723362659,6.9825
2.54154447702835,6.985
2.54643206256109,6.9875
2.5366568914956,6.99
2.55620723362659,6.9925
2.57575757575758,6.995
2.56598240469208,6.9975
2.55131964809384,7
2.53176930596285,7.0025
2.52688172043011,7.005
2.54154447702835,7.0075
2.54154447702835,7.01
2.57086999022483,7.0125
2.56109481915934,7.015
2.55131964809384,7.0175
2.52199413489736,7.02
2.53176930596285,7.0225
2.54154447702835,7.025
2.54643206256109,7.0275
2.56598240469208,7.03
2.56109481915934,7.0325
2.54154447702835,7.035
2.52199413489736,7.0375
2.5366568914956,7.04
2.54643206256109,7.0425
2.56109481915934,7.045
2.56598240469208,7.0475
2.55620723362659,7.05
2.54154447702835,7.0525
2.53176930596285,7.055
2.54154447702835,7.0575
2.54643206256109,7.06
2.55620723362659,7.0625
2.56598240469208,7.065
2.56109481915934,7.0675
2.53176930596285,7.07
2.5366568914956,7.0725
2.54643206256109,7.075
2.56109481915934,7.0775
2.57086999022483,7.08
2.56598240469208,7.0825
2.56109481915934,7.085
2.53176930596285,7.0875
2.5366568914956,7.09
2.55131964809384,7.0925
2.56109481915934,7.095
2.57086999022483,7.0975
2.56109481915934,7.1
2.54154447702835,7.1025
2.5366568914956,7.105
2.54154447702835,7.1075
2.54643206256109,7.11
2.56598240469208,7.1125
2.56598240469208,7.115
2.55620723362659,7.1175
2.53176930596285,7.12
2.5366568914956,7.1225
2.54154447702835,7.125
2.56109481915934,7.1275
2.58064516129032,7.13
2.56109481915934,7.1325
2.55620723362659,7.135
2.5366568914956,7.1375
2.53176930596285,7.14
2.54154447702835,7.1425
2.56109481915934,7.145
2.56109481915934,7.1475
2.55620723362659,7.15
2.54643206256109,7.1525
2.52688172043011,7.155
2.5366568914956,7.1575
2.55620723362659,7.16
2.56598240469208,7.1625
2.56598240469208,7.165
2.55620723362659,7.1675
2.54643206256109,7.17
2.53176930596285,7.1725
2.54154447702835,7.175
2.54643206256109,7.1775
2.56109481915934,7.18
2.56598240469208,7.1825
2.55620723362659,7.185
2.5366568914956,7.1875
2.5366568914956,7.19
2.54643206256109,7.1925
2.55620723362659,7.195
2.56598240469208,7.1975
2.56598240469208,7.2
2.55131964809384,7.2025
2.5366568914956,7.205
2.5366568914956,7.2075
2.54643206256109,7.21
2.55620723362659,7.2125
2.56598240469208,7.215
2.56109481915934,7.2175
2.54643206256109,7.22
2.5366568914956,7.2225
2.5366568914956,7.225
2.55620723362659,7.2275
2.55620723362659,7.23
2.56598240469208,7.2325
2.55620723362659,7.235
2.54154447702835,7.2375
2.5366568914956,7.24
2.54154447702835,7.2425
2.54154447702835,7.245
2.57575757575758,7.2475
2.56109481915934,7.25
2.56109481915934,7.2525
2.53176930596285,7.255
2.5366568914956,7.2575
2.54643206256109,7.26
2.55131964809384,7.2625
2.56598240469208,7.265
2.56109481915934,7.2675
2.56598240469208,7.27
2.54154447702835,7.2725
2.5366568914956,7.275
2.5366568914956,7.2775
2.56109481915934,7.28
2.56598240469208,7.2825
2.55620723362659,7.285
2.54154447702835,7.2875
2.53176930596285,7.29
2.54154447702835,7.2925
2.56109481915934,7.295
2.56598240469208,7.2975
2.56598240469208,7.3
2.55620723362659,7.3025
2.54643206256109,7.305
2.52688172043011,7.3075
2.5366568914956,7.31
2.54643206256109,7.3125
2.57086999022483,7.315
2.55620723362659,7.3175
2.54643206256109,7.32
2.5366568914956,7.3225
2.53176930596285,7.325
2.54154447702835,7.3275
2.54643206256109,7.33
2.57086999022483,7.3325
2.56109481915934,7.335
2.55131964809384,7.3375
2.53176930596285,7.34
2.54154447702835,7.3425
2.54643206256109,7.345
2.56109481915934,7.3475
2.57086999022483,7.35
2.56109481915934,7.3525
2.55620723362659,7.355
2.5366568914956,7.3575
2.54154447702835,7.36
2.54643206256109,7.3625
2.55620723362659,7.365
2.56109481915934,7.3675
2.55131964809384,7.37
2.5366568914956,7.3725
2.5366568914956,7.375
2.54643206256109,7.3775
2.55131964809384,7.38
2.57086999022483,7.3825
2.56109481915934,7.385
2.54154447702835,7.3875
2.52688172043011,7.39
2.52688172043011,7.3925
2.52199413489736,7.395
2.51710654936461,7.3975
2.51221896383187,7.4
2.47800586510264,7.4025
2.43401759530792,7.405
2.39491691104594,7.4075
2.3802541544477,7.41
2.37047898338221,7.4125
2.40957966764418,7.415
2.44379276637341,7.4175
2.50733137829912,7.42
2.55620723362659,7.4225
2.64907135874878,7.425
2.75659824046921,7.4275
2.82502443792766,7.43
2.87390029325513,7.4325
2.87390029325513,7.435
2.83479960899316,7.4375
2.79081133919844,7.44
2.73704789833822,7.4425
2.6930596285435,7.445
2.65395894428152,7.4475
2.6197458455523,7.45
2.57086999022483,7.4525
2.53176930596285,7.455
2.47311827956989,7.4575
2.4633431085044,7.46
2.45845552297165,7.4625
2.45356793743891,7.465
2.45845552297165,7.4675
2.44868035190616,7.47
2.44379276637341,7.4725
2.43890518084066,7.475
2.45356793743891,7.4775
2.47800586510264,7.48
2.48778103616813,7.4825
2.50733137829912,7.485
2.49266862170088,7.4875
2.49266862170088,7.49
2.49266862170088,7.4925
2.50733137829912,7.495
2.52199413489736,7.4975
2.54154447702835,7.5
2.54154447702835,7.5025
2.52688172043011,7.505
2.51221896383187,7.5075
2.52688172043011,7.51
2.52688172043011,7.5125
2.55620723362659,7.515
2.56109481915934,7.5175
2.55620723362659,7.52
2.54154447702835,7.5225
2.5366568914956,7.525
2.5366568914956,7.5275
2.5366568914956,7.53
2.56109481915934,7.5325
2.56109481915934,7.535
2.55620723362659,7.5375
2.54643206256109,7.54
2.53176930596285,7.5425
2.54154447702835,7.545
2.55131964809384,7.5475
2.56598240469208,7.55
2.56109481915934,7.5525
2.55620723362659,7.555
2.53176930596285,7.5575
2.5366568914956,7.56
2.54154447702835,7.5625
2.55131964809384,7.565
2.56598240469208,7.5675
2.55620723362659,7.57
2.54154447702835,7.5725
2.54154447702835,7.575
2.5366568914956,7.5775
2.5366568914956,7.58
2.56109481915934,7.5825
2.56598240469208,7.585
2.55620723362659,7.5875
2.54643206256109,7.59
2.53176930596285,7.5925
2.5366568914956,7.595
2.55620723362659,7.5975
2.56598240469208,7.6
2.56598240469208,7.6025
2.55620723362659,7.605
2.53176930596285,7.6075
2.53176930596285,7.61
2.54154447702835,7.6125
2.55131964809384,7.615
2.55620723362659,7.6175
2.56109481915934,7.62
2.54154447702835,7.6225
2.53176930596285,7.625
2.5366568914956,7.6275
2.54154447702835,7.63
2.55620723362659,7.6325
2.56109481915934,7.635
2.55620723362659,7.6375
2.5366568914956,7.64
2.53176930596285,7.6425
2.5366568914956,7.645
2.55620723362659,7.6475
2.57575757575758,7.65
2.56598240469208,7.6525
2.56109481915934,7.655
2.54643206256109,7.6575
2.5366568914956,7.66
2.54643206256109,7.6625
2.56109481915934,7.665
2.58064516129032,7.6675
2.57575757575758,7.67
2.57086999022483,7.6725
2.55620723362659,7.675
2.54643206256109,7.6775
2.55620723362659,7.68
2.56598240469208,7.6825
2.58064516129032,7.685
2.57575757575758,7.6875
2.57575757575758,7.69
2.54643206256109,7.6925
2.55620723362659,7.695
2.55620723362659,7.6975
2.57575757575758,7.7
2.58064516129032,7.7025
2.57086999022483,7.705
2.56598240469208,7.7075
2.5366568914956,7.71
2.54643206256109,7.7125
2.55131964809384,7.715
2.57575757575758,7.7175
2.57086999022483,7.72
2.55620723362659,7.7225
2.54154447702835,7.725
2.5366568914956,7.7275
2.54643206256109,7.73
2.55131964809384,7.7325
2.56109481915934,7.735
2.56598240469208,7.7375
2.54643206256109,7.74
2.5366568914956,7.7425
2.54154447702835,7.745
2.54643206256109,7.7475
2.55131964809384,7.75
2.57086999022483,7.7525
2.56109481915934,7.755
2.54154447702835,7.7575
2.54154447702835,7.76
2.54154447702835,7.7625
2.55131964809384,7.765
2.56109481915934,7.7675
2.57086999022483,7.77
2.56109481915934,7.7725
2.54643206256109,7.775
2.5366568914956,7.7775
2.54154447702835,7.78
2.54643206256109,7.7825
2.57086999022483,7.785
2.56109481915934,7.7875
2.56598240469208,7.79
2.53176930596285,7.7925
2.5366568914956,7.795
2.54154447702835,7.7975
2.55131964809384,7.8
2.56598240469208,7.8025
2.56109481915934,7.805
2.55620723362659,7.8075
2.5366568914956,7.81
2.5366568914956,7.8125
2.53176930596285,7.815
2.55131964809384,7.8175
2.56109481915934,7.82
2.55620723362659,7.8225
2.55620723362659,7.825
2.52688172043011,7.8275
2.5366568914956,7.83
2.53176930596285,7.8325
2.55131964809384,7.835
2.55620723362659,7.8375
2.56598240469208,7.84
2.54154447702835,7.8425
2.53176930596285,7.845
2.54154447702835,7.8475
2.5366568914956,7.85
2.56109481915934,7.8525
2.56109481915934,7.855
2.55620723362659,7.8575
2.52199413489736,7.86
2.53176930596285,7.8625
2.5366568914956,7.865
2.54154447702835,7.8675
2.56598240469208,7.87
2.55620723362659,7.8725
2.55131964809384,7.875
2.54643206256109,7.8775
2.5366568914956,7.88
2.54643206256109,7.8825
2.56598240469208,7.885
2.56598240469208,7.8875
2.55620723362659,7.89
2.53176930596285,7.8925
2.53176930596285,7.895
2.54154447702835,7.8975
2.55131964809384,7.9
2.55620723362659,7.9025
2.56598240469208,7.905
2.56109481915934,7.9075
2.54643206256109,7.91
2.5366568914956,7.9125
2.54154447702835,7.915
2.55620723362659,7.9175
2.56598240469208,7.92
2.56109481915934,7.9225
2.56109481915934,7.925
2.52688172043011,7.9275
2.5366568914956,7.93
2.54154447702835,7.9325
2.56109481915934,7.935
2.56598240469208,7.9375
2.56109481915934,7.94
2.54154447702835,7.9425
2.52688172043011,7.945
2.54154447702835,7.9475
2.54154447702835,7.95
2.57575757575758,7.9525
2.57086999022483,7.955
2.55620723362659,7.9575
2.55131964809384,7.96
2.5366568914956,7.9625
2.54154447702835,7.965
2.56109481915934,7.9675
2.57086999022483,7.97
2.56598240469208,7.9725
2.56109481915934,7.975
2.53176930596285,7.9775
2.5366568914956,7.98
2.54154447702835,7.9825
2.54643206256109,7.985
2.56598240469208,7.9875
2.56109481915934,7.99
2.54643206256109,7.9925
2.52688172043011,7.995
2.5366568914956,7.9975
2.5366568914956,8
2.55620723362659,8.0025
2.57086999022483,8.005
2.56109481915934,8.0075
2.54154447702835,8.01
2.53176930596285,8.0125
2.54154447702835,8.015
2.54643206256109,8.0175
2.56109481915934,8.02
2.56598240469208,8.0225
2.56598240469208,8.025
2.53176930596285,8.0275
2.5366568914956,8.03
2.54154447702835,8.0325
2.55131964809384,8.035
2.58064516129032,8.0375
2.56109481915934,8.04
2.54643206256109,8.0425
2.52199413489736,8.045
2.53176930596285,8.0475
2.54154447702835,8.05
2.56109481915934,8.0525
2.56598240469208,8.055
2.56109481915934,8.0575
2.55131964809384,8.06
2.53176930596285,8.0625
2.54154447702835,8.065
2.55131964809384,8.0675
2.57086999022483,8.07
2.56598240469208,8.0725
2.55620723362659,8.075
2.54643206256109,8.0775
2.53176930596285,8.08
2.54154447702835,8.0825
2.55131964809384,8.085
2.56598240469208,8.0875
2.56598240469208,8.09
2.56109481915934,8.0925
2.54643206256109,8.095
2.53176930596285,8.0975
2.54154447702835,8.1
2.55131964809384,8.1025
2.56598240469208,8.105
2.56109481915934,8.1075
2.55131964809384,8.11
2.52199413489736,8.1125
2.5366568914956,8.115
2.54154447702835,8.1175
2.56109481915934,8.12
2.56598240469208,8.1225
2.55620723362659,8.125
2.54154447702835,8.1275
2.53176930596285,8.13
2.5366568914956,8.1325
2.54154447702835,8.135
2.56109481915934,8.1375
2.56598240469208,8.14
2.55620723362659,8.1425
2.53176930596285,8.145
2.5366568914956,8.1475
2.54643206256109,8.15
2.55620723362659,8.1525
2.56598240469208,8.155
2.56598240469208,8.1575
2.55620723362659,8.16
2.53176930596285,8.1625
2.5366568914956,8.165
2.54643206256109,8.1675
2.55131964809384,8.17
2.56598240469208,8.1725
2.56109481915934,8.175
2.55620723362659,8.1775
2.53176930596285,8.18
2.5366568914956,8.1825
2.5366568914956,8.185
2.55131964809384,8.1875
2.55620723362659,8.19
2.54643206256109,8.1925
2.53176930596285,8.195
2.52688172043011,8.1975
2.5366568914956,8.2
2.55620723362659,8.2025
2.56598240469208,8.205
2.56109481915934,8.2075
2.55131964809384,8.21
2.54643206256109,8.2125
2.54154447702835,8.215
2.54643206256109,8.2175
2.55620723362659,8.22
2.57086999022483,8.2225
2.56598240469208,8.225
2.54643206256109,8.2275
2.5366568914956,8.23
2.54154447702835,8.2325
2.55131964809384,8.235
2.56598240469208,8.2375
2.56598240469208,8.24
2.56109481915934,8.2425
2.54154447702835,8.245
2.52688172043011,8.2475
2.54154447702835,8.25
2.55131964809384,8.2525
2.56598240469208,8.255
2.56598240469208,8.2575
2.56598240469208,8.26
2.54154447702835,8.2625
2.52688172043011,8.265
2.52688172043011,8.2675
2.52688172043011,8.27
2.52199413489736,8.2725
2.50733137829912,8.275
2.46823069403715,8.2775
2.42424242424242,8.28
2.39491691104594,8.2825
2.3802541544477,8.285
2.39491691104594,8.2875
2.40469208211144,8.29
2.43401759530792,8.2925
2.4633431085044,8.295
2.54154447702835,8.2975
2.64418377321603,8.3
2.74193548387097,8.3025
2.82013685239492,8.305
2.85923753665689,8.3075
2.85434995112414,8.31
2.82013685239492,8.3125
2.77126099706745,8.315
2.73216031280547,8.3175
2.6930596285435,8.32
2.64418377321603,8.3225
2.60508308895406,8.325
2.56109481915934,8.3275
2.51710654936461,8.33
2.49266862170088,8.3325
2.47800586510264,8.335
2.48289345063539,8.3375
2.48289345063539,8.34
2.47800586510264,8.3425
2.4633431085044,8.345
2.44868035190616,8.3475
2.46823069403715,8.35
2.49266862170088,8.3525
2.50733137829912,8.355
2.51710654936461,8.3575
2.51221896383187,8.36
2.49755620723363,8.3625
2.48778103616813,8.365
2.50733137829912,8.3675
2.51710654936461,8.37
2.55620723362659,8.3725
2.54643206256109,8.375
2.54154447702835,8.3775
2.51221896383187,8.38
2.51710654936461,8.3825
2.53176930596285,8.385
2.54154447702835,8.3875
2.56109481915934,8.39
2.55620723362659,8.3925
2.54643206256109,8.395
2.52688172043011,8.3975
2.53176930596285,8.4
2.54154447702835,8.4025
2.55620723362659,8.405
2.56598240469208,8.4075
2.56109481915934,8.41
2.54154447702835,8.4125
2.52199413489736,8.415
2.5366568914956,8.4175
2.54643206256109,8.42
2.55131964809384,8.4225
2.56598240469208,8.425
2.55620723362659,8.4275
2.54154447702835,8.43
2.53176930596285,8.4325
2.54154447702835,8.435
2.55131964809384,8.4375
2.57086999022483,8.44
2.56598240469208,8.4425
2.56109481915934,8.445
2.5366568914956,8.4475
2.53176930596285,8.45
2.54154447702835,8.4525
2.55131964809384,8.455
2.57086999022483,8.4575
2.56109481915934,8.46
2.54643206256109,8.4625
2.52688172043011,8.465
2.5366568914956,8.4675
2.54154447702835,8.47
2.55131964809384,8.4725
2.56598240469208,8.475
2.56109481915934,8.4775
2.54643206256109,8.48
2.5366568914956,8.4825
2.5366568914956,8.485
2.55620723362659,8.4875
2.56109481915934,8.49
2.56598240469208,8.4925
2.55620723362659,8.495
2.54643206256109,8.4975
2.53176930596285,8.5
2.54154447702835,8.5025
2.54643206256109,8.505
2.57086999022483,8.5075
2.56598240469208,8.51
2.56109481915934,8.5125
2.5366568914956,8.515
2.5366568914956,8.5175
2.54643206256109,8.52
2.56109481915934,8.5225
2.57086999022483,8.525
2.56598240469208,8.5275
2.54643206256109,8.53
2.53176930596285,8.5325
2.54154447702835,8.535
2.54643206256109,8.5375
2.57086999022483,8.54
2.57575757575758,8.5425
2.56598240469208,8.545
2.55131964809384,8.5475
2.54154447702835,8.55
2.55131964809384,8.5525
2.56109481915934,8.555
2.57575757575758,8.5575
2.57575757575758,8.56
2.58064516129032,8.5625
2.54643206256109,8.565
2.54643206256109,8.5675
2.55131964809384,8.57
2.56109481915934,8.5725
2.58064516129032,8.575
2.57086999022483,8.5775
2.55131964809384,8.58
2.54643206256109,8.5825
2.54154447702835,8.585
2.55131964809384,8.5875
2.57086999022483,8.59
2.57086999022483,8.5925
2.56109481915934,8.595
2.54154447702835,8.5975
2.52199413489736,8.6
2.5366568914956,8.6025
2.55620723362659,8.605
2.56109481915934,8.6075
2.56109481915934,8.61
2.55131964809384,8.6125
2.5366568914956,8.615
2.53176930596285,8.6175
2.54154447702835,8.62
2.56109481915934,8.6225
2.57575757575758,8.625
2.56598240469208,8.6275
2.56109481915934,8.63
2.54154447702835,8.6325
2.5366568914956,8.635
2.54643206256109,8.6375
2.56598240469208,8.64
2.56598240469208,8.6425
2.56109481915934,8.645
2.55620723362659,8.6475
2.53176930596285,8.65
2.5366568914956,8.6525
2.5366568914956,8.655
2.56598240469208,8.6575
2.56598240469208,8.66
2.55620723362659,8.6625
2.54643206256109,8.665
2.54643206256109,8.6675
2.54154447702835,8.67
2.54154447702835,8.6725
2.56109481915934,8.675
2.56598240469208,8.6775
2.55620723362659,8.68
2.5366568914956,8.6825
2.53176930596285,8.685
2.54154447702835,8.6875
2.55131964809384,8.69
2.55620723362659,8.6925
2.56109481915934,8.695
2.55620723362659,8.6975
2.54154447702835,8.7
2.53176930596285,8.7025
2.54154447702835,8.705
2.55131964809384,8.7075
2.56109481915934,8.71
2.55620723362659,8.7125
2.54643206256109,8.715
2.52688172043011,8.7175
2.5366568914956,8.72
2.54154447702835,8.7225
2.56109481915934,8.725
2.56109481915934,8.7275
2.55620723362659,8.73
2.55131964809384,8.7325
2.53176930596285,8.735
2.5366568914956,8.7375
2.54643206256109,8.74
2.57086999022483,8.7425
2.56109481915934,8.745
2.54643206256109,8.7475
2.54643206256109,8.75
2.52688172043011,8.7525
2.5366568914956,8.755
2.54643206256109,8.7575
2.56109481915934,8.76
2.56109481915934,8.7625
2.55131964809384,8.765
2.5366568914956,8.7675
2.53176930596285,8.77
2.54643206256109,8.7725
2.55620723362659,8.775
2.56598240469208,8.7775
2.55620723362659,8.78
2.55131964809384,8.7825
2.54154447702835,8.785
2.54154447702835,8.7875
2.54154447702835,8.79
2.56109481915934,8.7925
2.56598240469208,8.795
2.56109481915934,8.7975
2.5366568914956,8.8
2.53176930596285,8.8025
2.54154447702835,8.805
2.54154447702835,8.8075
2.57086999022483,8.81
2.56109481915934,8.8125
2.56598240469208,8.815
2.53176930596285,8.8175
2.5366568914956,8.82
2.54643206256109,8.8225
2.56109481915934,8.825
2.57086999022483,8.8275
2.56109481915934,8.83
2.54643206256109,8.8325
2.52688172043011,8.835
2.5366568914956,8.8375
2.55131964809384,8.84
2.56109481915934,8.8425
2.56598240469208,8.845
2.56109481915934,8.8475
2.55620723362659,8.85
2.53176930596285,8.8525
2.54154447702835,8.855
2.54154447702835,8.8575
2.56109481915934,8.86
2.56598240469208,8.8625
2.57086999022483,8.865
2.52688172043011,8.8675
2.5366568914956,8.87
2.54154447702835,8.8725
2.55620723362659,8.875
2.56598240469208,8.8775
2.56598240469208,8.88
2.56109481915934,8.8825
2.53176930596285,8.885
2.5366568914956,8.8875
2.54643206256109,8.89
2.57086999022483,8.8925
2.56598240469208,8.895
2.56109481915934,8.8975
2.54154447702835,8.9
2.52688172043011,8.9025
2.54154447702835,8.905
2.54154447702835,8.9075
2.56109481915934,8.91
2.56598240469208,8.9125
2.55620723362659,8.915
2.54154447702835,8.9175
2.54154447702835,8.92
2.54154447702835,8.9225
2.54643206256109,8.925
2.56109481915934,8.9275
2.56109481915934,8.93
2.55620723362659,8.9325
2.54154447702835,8.935
2.5366568914956,8.9375
2.54154447702835,8.94
2.56109481915934,8.9425
2.56598240469208,8.945
2.56109481915934,8.9475
2.56109481915934,8.95
2.5366568914956,8.9525
2.5366568914956,8.955
2.54154447702835,8.9575
2.57086999022483,8.96
2.56598240469208,8.9625
2.55620723362659,8.965
2.54643206256109,8.9675
2.53176930596285,8.97
2.54154447702835,8.9725
2.54643206256109,8.975
2.57086999022483,8.9775
2.56598240469208,8.98
2.55620723362659,8.9825
2.55131964809384,8.985
2.53176930596285,8.9875
2.54154447702835,8.99
2.56109481915934,8.9925
2.56109481915934,8.995
2.56109481915934,8.9975
2.55620723362659,9
2.53176930596285,9.0025
2.5366568914956,9.005
2.54643206256109,9.0075
2.55620723362659,9.01
2.56598240469208,9.0125
2.56109481915934,9.015
2.54154447702835,9.0175
2.53176930596285,9.02
2.54154447702835,9.0225
2.54154447702835,9.025
2.56109481915934,9.0275
2.56598240469208,9.03
2.55620723362659,9.0325
2.5366568914956,9.035
2.53176930596285,9.0375
2.54154447702835,9.04
2.55131964809384,9.0425
2.56109481915934,9.045
2.56109481915934,9.0475
2.55620723362659,9.05
2.54154447702835,9.0525
2.5366568914956,9.055
2.54154447702835,9.0575
2.55620723362659,9.06
2.56598240469208,9.0625
2.56109481915934,9.065
2.54154447702835,9.0675
2.54154447702835,9.07
2.54154447702835,9.0725
2.55620723362659,9.075
2.55620723362659,9.0775
2.57086999022483,9.08
2.56109481915934,9.0825
2.55131964809384,9.085
2.53176930596285,9.0875
2.54154447702835,9.09
2.54643206256109,9.0925
2.57086999022483,9.095
2.56598240469208,9.0975
2.56109481915934,9.1
2.55131964809384,9.1025
2.5366568914956,9.105
2.54154447702835,9.1075
2.55620723362659,9.11
2.56109481915934,9.1125
2.56109481915934,9.115
2.55131964809384,9.1175
2.52688172043011,9.12
2.53176930596285,9.1225
2.54154447702835,9.125
2.55620723362659,9.1275
2.56109481915934,9.13
2.55131964809384,9.1325
2.55620723362659,9.135
2.52688172043011,9.1375
2.5366568914956,9.14
2.55620723362659,9.1425
2.57086999022483,9.145
2.57086999022483,9.1475
2.56109481915934,9.15
2.54154447702835,9.1525
2.54154447702835,9.155
2.54643206256109,9.1575
2.55620723362659,9.16
2.57086999022483,9.1625
2.57086999022483,9.165
2.57086999022483,9.1675
2.55131964809384,9.17
2.54154447702835,9.1725
2.54154447702835,9.175
2.56109481915934,9.1775
2.57086999022483,9.18
2.56109481915934,9.1825
2.55620723362659,9.185
2.53176930596285,9.1875
2.54154447702835,9.19
2.54154447702835,9.1925
2.55620723362659,9.195
2.56598240469208,9.1975
2.55620723362659,9.2
2.5366568914956,9.2025
2.51710654936461,9.205
2.53176930596285,9.2075
2.52688172043011,9.21
2.53176930596285,9.2125
2.52199413489736,9.215
2.49755620723363,9.2175
2.45356793743891,9.22
2.41446725317693,9.2225
2.39491691104594,9.225
2.37536656891496,9.2275
2.3900293255132,9.23
2.40469208211144,9.2325
2.42913000977517,9.235
2.4633431085044,9.2375
2.56109481915934,9.24
2.67350928641251,9.2425
2.7663734115347,9.245
2.82991202346041,9.2475
2.8494623655914,9.25
2.82991202346041,9.2525
2.80058651026393,9.255
2.7663734115347,9.2575
2.71260997067449,9.26
2.68817204301075,9.2625
2.63929618768328,9.265
2.59530791788856,9.2675
2.54643206256109,9.27
2.50733137829912,9.2725
2.48778103616813,9.275
2.48289345063539,9.2775
2.49266862170088,9.28
2.47800586510264,9.2825
2.47311827956989,9.285
2.45356793743891,9.2875
2.4633431085044,9.29
2.47311827956989,9.2925
2.50733137829912,9.295
2.52199413489736,9.2975
2.51710654936461,9.3
2.50733137829912,9.3025
2.49266862170088,9.305
2.50244379276637,9.3075
2.52199413489736,9.31
2.54643206256109,9.3125
2.54643206256109,9.315
2.54154447702835,9.3175
2.53176930596285,9.32
2.52199413489736,9.3225
2.52199413489736,9.325
2.5366568914956,9.3275
2.56598240469208,9.33
2.55620723362659,9.3325
2.54643206256109,9.335
2.52688172043011,9.3375
2.52688172043011,9.34
2.5366568914956,9.3425
2.54154447702835,9.345
2.56598240469208,9.3475
2.56109481915934,9.35
2.54643206256109,9.3525
2.52688172043011,9.355
2.53176930596285,9.3575
2.54154447702835,9.36
2.55131964809384,9.3625
2.56598240469208,9.365
2.56109481915934,9.3675
2.56109481915934,9.37
2.52688172043011,9.3725
2.5366568914956,9.375
2.54154447702835,9.3775
2.55131964809384,9.38
2.56598240469208,9.3825
2.55620723362659,9.385
2.55131964809384,9.3875
2.5366568914956,9.39
2.5366568914956,9.3925
2.55620723362659,9.395
2.57575757575758,9.3975
2.56109481915934,9.4
2.54643206256109,9.4025
2.53176930596285,9.405
2.53176930596285,9.4075
2.54154447702835,9.41
2.55620723362659,9.4125
2.56598240469208,9.415
2.56109481915934,9.4175
2.55131964809384,9.42
2.52688172043011,9.4225
2.5366568914956,9.425
2.54643206256109,9.4275
2.54643206256109,9.43
2.56598240469208,9.4325
2.56109481915934,9.435
2.55131964809384,9.4375
2.5366568914956,9.44
2.5366568914956,9.4425
2.5366568914956,9.445
2.56598240469208,9.4475
2.56598240469208,9.45
2.56109481915934,9.4525
2.54154447702835,9.455
2.5366568914956,9.4575
2.54643206256109,9.46
2.55620723362659,9.4625
2.58064516129032,9.465
2.56598240469208,9.4675
2.55131964809384,9.47
2.54154447702835,9.4725
2.54154447702835,9.475
2.55131964809384,9.4775
2.56109481915934,9.48
2.57575757575758,9.4825
2.56598240469208,9.485
2.55620723362659,9.4875
2.55131964809384,9.49
2.54643206256109,9.4925
2.56109481915934,9.495
2.56598240469208,9.4975
2.57575757575758,9.5
2.56598240469208,9.5025
2.55620723362659,9.505
2.55131964809384,9.5075
2.55131964809384,9.51
2.55131964809384,9.5125
2.57575757575758,9.515
2.58064516129032,9.5175
2.57575757575758,9.52
2.54643206256109,9.5225
2.54643206256109,9.525
2.55131964809384,9.5275
2.56109481915934,9.53
2.57575757575758,9.5325
2.56598240469208,9.535
2.55131964809384,9.5375
2.52688172043011,9.54
2.5366568914956,9.5425
2.54643206256109,9.545
2.55620723362659,9.5475
2.56109481915934,9.55
2.55620723362659,9.5525
2.54154447702835,9.555
2.51710654936461,9.5575
2.53176930596285,9.56
2.54154447702835,9.5625
2.55620723362659,9.565
2.56109481915934,9.5675
2.55620723362659,9.57
2.5366568914956,9.5725
2.5366568914956,9.575
2.54154447702835,9.5775
2.54154447702835,9.58
2.57086999022483,9.5825
2.56598240469208,9.585
2.56598240469208,9.5875
2.54154447702835,9.59
2.5366568914956,9.5925
2.54643206256109,9.595
2.55620723362659,9.5975
2.57086999022483,9.6
2.56598240469208,9.6025
2.56109481915934,9.605
2.52688172043011,9.6075
2.5366568914956,9.61
2.5366568914956,9.6125
2.55620723362659,9.615
2.56598240469208,9.6175
2.55620723362659,9.62
2.54154447702835,9.6225
2.52688172043011,9.625
2.5366568914956,9.6275
2.54154447702835,9.63
2.56598240469208,9.6325
2.56109481915934,9.635
2.55620723362659,9.6375
2.54154447702835,9.64
2.53176930596285,9.6425
2.5366568914956,9.645
2.54154447702835,9.6475
2.55620723362659,9.65
2.56109481915934,9.6525
2.54643206256109,9.655
2.53176930596285,9.6575
2.53176930596285,9.66
2.54154447702835,9.6625
2.55620723362659,9.665
2.56598240469208,9.6675
2.56109481915934,9.67
2.55620723362659,9.6725
2.52688172043011,9.675
2.53176930596285,9.6775
2.55131964809384,9.68
2.54643206256109,9.6825
2.56109481915934,9.685
2.55620723362659,9.6875
2.54643206256109,9.69
2.53176930596285,9.6925
2.5366568914956,9.695
2.54643206256109,9.6975
2.57086999022483,9.7
2.56598240469208,9.7025
2.55131964809384,9.705
2.53176930596285,9.7075
2.53176930596285,9.71
2.54154447702835,9.7125
2.55131964809384,9.715
2.56598240469208,9.7175
2.55620723362659,9.72
2.55620723362659,9.7225
2.5366568914956,9.725
2.5366568914956,9.7275
2.54154447702835,9.73
2.56109481915934,9.7325
2.56598240469208,9.735
2.56109481915934,9.7375
2.55620723362659,9.74
2.5366568914956,9.7425
2.5366568914956,9.745
2.54154447702835,9.7475
2.55620723362659,9.75
2.56598240469208,9.7525
2.56109481915934,9.755
2.54643206256109,9.7575
2.5366568914956,9.76
2.54643206256109,9.7625
2.55131964809384,9.765
2.57086999022483,9.7675
2.56598240469208,9.77
2.55620723362659,9.7725
2.54154447702835,9.775
2.53176930596285,9.7775
2.54154447702835,9.78
2.55620723362659,9.7825
2.56598240469208,9.785
2.55620723362659,9.7875
2.55131964809384,9.79
2.52688172043011,9.7925
2.5366568914956,9.795
2.54154447702835,9.7975
2.55620723362659,9.8
2.56598240469208,9.8025
2.56109481915934,9.805
2.5366568914956,9.8075
2.53176930596285,9.81
2.54154447702835,9.8125
2.54643206256109,9.815
2.57575757575758,9.8175
2.56598240469208,9.82
2.55131964809384,9.8225
2.54154447702835,9.825
2.53176930596285,9.8275
2.54154447702835,9.83
2.54643206256109,9.8325
2.55620723362659,9.835
2.55620723362659,9.8375
2.55131964809384,9.84
2.52688172043011,9.8425
2.53176930596285,9.845
2.54154447702835,9.8475
2.57086999022483,9.85
2.56598240469208,9.8525
2.56109481915934,9.855
2.55620723362659,9.8575
2.54643206256109,9.86
2.5366568914956,9.8625
2.54643206256109,9.865
2.56109481915934,9.8675
2.56598240469208,9.87
2.56109481915934,9.8725
2.53176930596285,9.875
2.53176930596285,9.8775
2.54154447702835,9.88
2.54643206256109,9.8825
2.57086999022483,9.885
2.56598240469208,9.8875
2.55620723362659,9.89
2.52688172043011,9.8925
2.5366568914956,9.895
2.54154447702835,9.8975
2.55620723362659,9.9
2.56598240469208,9.9025
2.56598240469208,9.905
2.55620723362659,9.9075
2.54643206256109,9.91
2.5366568914956,9.9125
2.54154447702835,9.915
2.55131964809384,9.9175
2.56598240469208,9.92
2.55620723362659,9.9225
2.5366568914956,9.925
2.54154447702835,9.9275
2.54154447702835,9.93
2.54154447702835,9.9325
2.55620723362659,9.935
2.56598240469208,9.9375
2.55620723362659,9.94
2.54643206256109,9.9425
2.5366568914956,9.945
2.54154447702835,9.9475
2.54643206256109,9.95
2.56109481915934,9.9525
2.56109481915934,9.955
2.56109481915934,9.9575
2.54154447702835,9.96
2.53176930596285,9.9625
2.54154447702835,9.965
2.56109481915934,9.9675
2.56598240469208,9.97
2.56109481915934,9.9725
2.54154447702835,9.975
2.52199413489736,9.9775
2.5366568914956,9.98
2.55131964809384,9.9825
2.56109481915934,9.985
2.56598240469208,9.9875
2.55620723362659,9.99
2.5366568914956,9.9925
2.53176930596285,9.995
2.54154447702835,9.9975
2.56109481915934,10
2.55620723362659,10.0025
2.56598240469208,10.005
2.55620723362659,10.0075
2.5366568914956,10.01
2.5366568914956,10.0125
2.54154447702835,10.015
2.55131964809384,10.0175
2.56598240469208,10.02
2.56109481915934,10.0225
2.55620723362659,10.025
2.52199413489736,10.0275
2.5366568914956,10.03
2.5366568914956,10.0325
2.55131964809384,10.035
2.57086999022483,10.0375
2.56109481915934,10.04
2.55131964809384,10.0425
2.52688172043011,10.045
2.5366568914956,10.0475
2.5366568914956,10.05
2.57086999022483,10.0525
2.56598240469208,10.055
2.55131964809384,10.0575
2.53176930596285,10.06
2.52688172043011,10.0625
2.54154447702835,10.065
2.54643206256109,10.0675
2.56598240469208,10.07
2.56598240469208,10.0725
2.57086999022483,10.075
2.53176930596285,10.0775
2.54154447702835,10.08
2.54643206256109,10.0825
2.56109481915934,10.085
2.57086999022483,10.0875
2.56109481915934,10.09
2.56109481915934,10.0925
2.54643206256109,10.095
2.54154447702835,10.0975
2.55131964809384,10.1
2.56109481915934,10.1025
2.56598240469208,10.105
2.55620723362659,10.1075
2.5366568914956,10.11
2.52688172043011,10.1125
2.5366568914956,10.115
2.55131964809384,10.1175
2.56598240469208,10.12
2.56109481915934,10.1225
2.55131964809384,10.125
2.52199413489736,10.1275
2.50244379276637,10.13
2.49266862170088,10.1325
2.49266862170088,10.135
2.46823069403715,10.1375
2.43890518084066,10.14
2.39980449657869,10.1425
2.3802541544477,10.145
2.37047898338221,10.1475
2.41935483870968,10.15
2.47311827956989,10.1525
2.55620723362659,10.155
2.63929618768328,10.1575
2.73216031280547,10.16
2.79081133919844,10.1625
2.84457478005865,10.165
2.85923753665689,10.1675
2.86412512218964,10.17
2.82991202346041,10.1725
2.7761485826002,10.175
2.69794721407625,10.1775
2.64907135874878,10.18
2.60508308895406,10.1825
2.57086999022483,10.185
2.55131964809384,10.1875
2.52199413489736,10.19
2.48778103616813,10.1925
2.45356793743891,10.195
2.43401759530792,10.1975
2.43401759530792,10.2
2.44379276637341,10.2025
2.45845552297165,10.205
2.45845552297165,10.2075
2.4633431085044,10.21
2.44379276637341,10.2125
2.4633431085044,10.215
2.48778103616813,10.2175
2.51221896383187,10.22
2.52199413489736,10.2225
2.51710654936461,10.225
2.50244379276637,10.2275
2.50244379276637,10.23
2.51710654936461,10.2325
2.52199413489736,10.235
2.5366568914956,10.2375
2.55131964809384,10.24
2.54154447702835,10.2425
2.51710654936461,10.245
2.52199413489736,10.2475
2.53176930596285,10.25
2.54154447702835,10.2525
2.55131964809384,10.255
2.55620723362659,10.2575
2.54154447702835,10.26
2.53176930596285,10.2625
2.53176930596285,10.265
2.54154447702835,10.2675
2.55620723362659,10.27
2.56598240469208,10.2725
2.56109481915934,10.275
2.55131964809384,10.2775
2.52199413489736,10.28
2.5366568914956,10.2825
2.54643206256109,10.285
2.56598240469208,10.2875
2.56598240469208,10.29
2.55620723362659,10.2925
2.5366568914956,10.295
2.53176930596285,10.2975
2.54154447702835,10.3
2.54643206256109,10.3025
2.55620723362659,10.305
2.56598240469208,10.3075
2.54643206256109,10.31
2.53176930596285,10.3125
2.5366568914956,10.315
2.54154447702835,10.3175
2.55620723362659,10.32
2.56598240469208,10.3225
2.56109481915934,10.325
2.55131964809384,10.3275
2.53176930596285,10.33
2.5366568914956,10.3325
2.54154447702835,10.335
2.55131964809384,10.3375
2.56598240469208,10.34
2.55620723362659,10.3425
2.55131964809384,10.345
2.5366568914956,10.3475
2.5366568914956,10.35
2.54154447702835,10.3525
2.56598240469208,10.355
2.56598240469208,10.3575
2.55131964809384,10.36
2.53176930596285,10.3625
2.5366568914956,10.365
2.54154447702835,10.3675
2.54154447702835,10.37
2.55620723362659,10.3725
2.56109481915934,10.375
2.56109481915934,10.3775
2.54154447702835,10.38
2.5366568914956,10.3825
2.54643206256109,10.385
2.56598240469208,10.3875
2.57575757575758,10.39
2.56598240469208,10.3925
2.56109481915934,10.395
2.54643206256109,10.3975
2.54154447702835,10.4
2.56109481915934,10.4025
2.56109481915934,10.405
2.57575757575758,10.4075
2.56598240469208,10.41
2.56109481915934,10.4125
2.54643206256109,10.415
2.55620723362659,10.4175
2.56598240469208,10.42
2.59530791788856,10.4225
2.58064516129032,10.425
2.57575757575758,10.4275
2.54643206256109,10.43
2.55131964809384,10.4325
2.55620723362659,10.435
2.58064516129032,10.4375
2.58064516129032,10.44
2.57575757575758,10.4425
2.56109481915934,10.445
2.5366568914956,10.4475
2.54643206256109,10.45
2.55620723362659,10.4525
2.57086999022483,10.455
2.57575757575758,10.4575
2.56598240469208,10.46
2.54154447702835,10.4625
2.5366568914956,10.465
2.54154447702835,10.4675
2.54643206256109,10.47
2.57086999022483,10.4725
2.56598240469208,10.475
2.55620723362659,10.4775
2.54154447702835,10.48
2.53176930596285,10.4825
2.54154447702835,10.485
2.54643206256109,10.4875
2.57086999022483,10.49
2.56598240469208,10.4925
2.56598240469208,10.495
2.52688172043011,10.4975
2.53176930596285,10.5
2.54154447702835,10.5025
2.54643206256109,10.505
2.56598240469208,10.5075
2.56109481915934,10.51
2.54154447702835,10.5125
2.5366568914956,10.515
2.5366568914956,10.5175
2.54154447702835,10.52
2.55620723362659,10.5225
2.57086999022483,10.525
2.56109481915934,10.5275
2.5366568914956,10.53
2.5366568914956,10.5325
2.54154447702835,10.535
2.55620723362659,10.5375
2.56109481915934,10.54
2.56598240469208,10.5425
2.56109481915934,10.545
2.55131964809384,10.5475
2.5366568914956,10.55
2.54154447702835,10.5525
2.55131964809384,10.555
2.57086999022483,10.5575
2.55620723362659,10.56
2.54643206256109,10.5625
2.5366568914956,10.565
2.53176930596285,10.5675
2.54154447702835,10.57
2.56109481915934,10.5725
2.56109481915934,10.575
2.55131964809384,10.5775
2.5366568914956,10.58
2.54154447702835,10.5825
2.5366568914956,10.585
2.54154447702835,10.5875
2.54643206256109,10.59
2.56109481915934,10.5925
2.55131964809384,10.595
2.5366568914956,10.5975
2.53176930596285,10.6
2.5366568914956,10.6025
2.54154447702835,10.605
2.56109481915934,10.6075
2.56109481915934,10.61
2.56109481915934,10.6125
2.52688172043011,10.615
2.53176930596285,10.6175
2.54643206256109,10.62
2.55131964809384,10.6225
2.56598240469208,10.625
2.56109481915934,10.6275
2.55131964809384,10.63
2.54643206256109,10.6325
2.5366568914956,10.635
2.5366568914956,10.6375
2.55131964809384,10.64
2.56598240469208,10.6425
2.55620723362659,10.645
2.54154447702835,10.6475
2.53176930596285,10.65
2.5366568914956,10.6525
2.54154447702835,10.655
2.58064516129032,10.6575
2.56598240469208,10.66
2.56109481915934,10.6625
2.55131964809384,10.665
2.5366568914956,10.6675
2.54643206256109,10.67
2.55620723362659,10.6725
2.57575757575758,10.675
2.56598240469208,10.6775
2.54643206256109,10.68
2.54643206256109,10.6825
2.5366568914956,10.685
2.54154447702835,10.6875
2.55620723362659,10.69
2.57086999022483,10.6925
2.56109481915934,10.695
2.55620723362659,10.6975
2.52199413489736,10.7
2.5366568914956,10.7025
2.54154447702835,10.705
2.57086999022483,10.7075
2.56598240469208,10.71
2.55620723362659,10.7125
2.54154447702835,10.715
2.53176930596285,10.7175
2.5366568914956,10.72
2.54643206256109,10.7225
2.57086999022483,10.725
2.56598240469208,10.7275
2.54643206256109,10.73
2.53176930596285,10.7325
2.5366568914956,10.735
2.54154447702835,10.7375
2.56109481915934,10.74
2.56598240469208,10.7425
2.56109481915934,10.745
2.54643206256109,10.7475
2.54154447702835,10.75
2.5366568914956,10.7525
2.54643206256109,10.755
2.56598240469208,10.7575
2.56598240469208,10.76
2.56109481915934,10.7625
2.54154447702835,10.765
2.5366568914956,10.7675
2.5366568914956,10.77
2.54154447702835,10.7725
2.55131964809384,10.775
2.56598240469208,10.7775
2.55620723362659,10.78
2.52688172043011,10.7825
2.53176930596285,10.785
2.54154447702835,10.7875
2.55131964809384,10.79
2.55620723362659,10.7925
2.56598240469208,10.795
2.55131964809384,10.7975
2.54643206256109,10.8
2.5366568914956,10.8025
2.54643206256109,10.805
2.55620723362659,10.8075
2.56598240469208,10.81
2.55620723362659,10.8125
2.55131964809384,10.815
2.54154447702835,10.8175
2.5366568914956,10.82
2.54154447702835,10.8225
2.55620723362659,10.825
2.56598240469208,10.8275
2.55620723362659,10.83
2.53176930596285,10.8325
2.53176930596285,10.835
2.5366568914956,10.8375
2.54643206256109,10.84
2.56109481915934,10.8425
2.56109481915934,10.845
2.56109481915934,10.8475
2.54154447702835,10.85
2.53176930596285,10.8525
2.54154447702835,10.855
2.55131964809384,10.8575
2.56598240469208,10.86
2.56598240469208,10.8625
2.55131964809384,10.865
2.54154447702835,10.8675
2.54154447702835,10.87
2.54643206256109,10.8725
2.56598240469208,10.875
2.57086999022483,10.8775
2.55620723362659,10.88
2.55620723362659,10.8825
2.53176930596285,10.885
2.5366568914956,10.8875
2.54154447702835,10.89
2.57086999022483,10.8925
2.56598240469208,10.895
2.56598240469208,10.8975
2.52688172043011,10.9
2.52688172043011,10.9025
2.53176930596285,10.905
2.54154447702835,10.9075
2.56598240469208,10.91
2.55620723362659,10.9125
2.55620723362659,10.915
2.54154447702835,10.9175
2.53176930596285,10.92
2.54154447702835,10.9225
2.55620723362659,10.925
2.56598240469208,10.9275
2.56109481915934,10.93
2.56109481915934,10.9325
2.54154447702835,10.935
2.54154447702835,10.9375
2.54154447702835,10.94
2.57086999022483,10.9425
2.56598240469208,10.945
2.56109481915934,10.9475
2.54643206256109,10.95
2.5366568914956,10.9525
2.54154447702835,10.955
2.54643206256109,10.9575
2.56598240469208,10.96
2.56598240469208,10.9625
2.56598240469208,10.965
2.5366568914956,10.9675
2.5366568914956,10.97
2.54643206256109,10.9725
2.54643206256109,10.975
2.57086999022483,10.9775
2.56109481915934,10.98
2.55620723362659,10.9825
2.52199413489736,10.985
2.52688172043011,10.9875
2.52199413489736,10.99
2.52688172043011,10.9925
2.50733137829912,10.995
2.47311827956989,10.9975
2.42913000977517,11
2.40469208211144,11.0025
2.3802541544477,11.005
2.38514173998045,11.0075
2.42913000977517,11.01
2.45356793743891,11.0125
2.49755620723363,11.015
2.56598240469208,11.0175
2.65884652981427,11.02
2.75171065493646,11.0225
2.81524926686217,11.025
2.86412512218964,11.0275
2.85923753665689,11.03
2.81524926686217,11.0325
2.76148582600196,11.035
2.71749755620723,11.0375
2.66862170087977,11.04
2.62952101661779,11.0425
2.60019550342131,11.045
2.56109481915934,11.0475
2.51221896383187,11.05
2.48289345063539,11.0525
2.45845552297165,11.055
2.45356793743891,11.0575
2.45356793743891,11.06
2.47311827956989,11.0625
2.46823069403715,11.065
2.44868035190616,11.0675
2.45356793743891,11.07
2.46823069403715,11.0725
2.48289345063539,11.075
2.50733137829912,11.0775
2.51710654936461,11.08
2.52199413489736,11.0825
2.51221896383187,11.085
2.50244379276637,11.0875
2.51710654936461,11.09
2.52688172043011,11.0925
2.55131964809384,11.095
2.54643206256109,11.0975
2.55131964809384,11.1
2.51710654936461,11.1025
2.52688172043011,11.105
2.5366568914956,11.1075
2.54643206256109,11.11
2.56109481915934,11.1125
2.55131964809384,11.115
2.54154447702835,11.1175
2.52688172043011,11.12
2.5366568914956,11.1225
2.54154447702835,11.125
2.55620723362659,11.1275
2.56109481915934,11.13
2.55620723362659,11.1325
2.54154447702835,11.135
2.52688172043011,11.1375
2.54154447702835,11.14
2.55131964809384,11.1425
2.55620723362659,11.145
2.56598240469208,11.1475
2.55131964809384,11.15
2.52688172043011,11.1525
2.53176930596285,11.155
2.54154447702835,11.1575
2.56109481915934,11.16
2.57086999022483,11.1625
2.56109481915934,11.165
2.55131964809384,11.1675
2.52688172043011,11.17
2.5366568914956,11.1725
2.55131964809384,11.175
2.56109481915934,11.1775
2.56598240469208,11.18
2.55620723362659,11.1825
2.55620723362659,11.185
2.53176930596285,11.1875
2.54154447702835,11.19
2.55131964809384,11.1925
2.55620723362659,11.195
2.56598240469208,11.1975
2.56109481915934,11.2
2.52688172043011,11.2025
2.53176930596285,11.205
2.54154447702835,11.2075
2.55131964809384,11.21
2.56109481915934,11.2125
2.56109481915934,11.215
2.54643206256109,11.2175
2.53176930596285,11.22
2.5366568914956,11.2225
2.54154447702835,11.225
2.56109481915934,11.2275
2.56598240469208,11.23
2.56598240469208,11.2325
2.55131964809384,11.235
2.54154447702835,11.2375
2.54154447702835,11.24
2.54643206256109,11.2425
2.58064516129032,11.245
2.57086999022483,11.2475
2.56598240469208,11.25
2.55131964809384,11.2525
2.54154447702835,11.255
2.54643206256109,11.2575
2.56598240469208,11.26
2.57086999022483,11.2625
2.57575757575758,11.265
2.56109481915934,11.2675
2.56109481915934,11.27
2.54643206256109,11.2725
2.55620723362659,11.275
2.57086999022483,11.2775
2.58064516129032,11.28
2.57575757575758,11.2825
2.57086999022483,11.285
2.5366568914956,11.2875
2.55131964809384,11.29
2.55620723362659,11.2925
2.58064516129032,11.295
2.58064516129032,11.2975
2.57086999022483,11.3
2.56109481915934,11.3025
2.55131964809384,11.305
2.54643206256109,11.3075
2.55620723362659,11.31
2.55620723362659,11.3125
2.56598240469208,11.315
2.56109481915934,11.3175
2.5366568914956,11.32
2.53176930596285,11.3225
2.54154447702835,11.325
2.56109481915934,11.3275
2.56598240469208,11.33
2.56109481915934,11.3325
2.55620723362659,11.335
2.54154447702835,11.3375
2.53176930596285,11.34
2.54154447702835,11.3425
2.55620723362659,11.345
2.56598240469208,11.3475
2.56109481915934,11.35
2.54154447702835,11.3525
2.52199413489736,11.355
2.5366568914956,11.3575
2.54643206256109,11.36
2.56109481915934,11.3625
2.57086999022483,11.365
2.56109481915934,11.3675
2.54154447702835,11.37
2.53176930596285,11.3725
2.54154447702835,11.375
2.54154447702835,11.3775
2.57086999022483,11.38
2.56598240469208,11.3825
2.55131964809384,11.385
2.55131964809384,11.3875
2.5366568914956,11.39
2.54154447702835,11.3925
2.55620723362659,11.395
2.57575757575758,11.3975
2.56598240469208,11.4
2.54643206256109,11.4025
2.52688172043011,11.405
2.5366568914956,11.4075
2.54643206256109,11.41
2.57086999022483,11.4125
2.56598240469208,11.415
2.55620723362659,11.4175
2.54154447702835,11.42
2.53176930596285,11.4225
2.5366568914956,11.425
2.5366568914956,11.4275
2.56109481915934,11.43
2.56109481915934,11.4325
2.55131964809384,11.435
2.53176930596285,11.4375
2.52688172043011,11.44
2.5366568914956,11.4425
2.54643206256109,11.445
2.57575757575758,11.4475
2.56109481915934,11.45
2.54154447702835,11.4525
2.52688172043011,11.455
2.53176930596285,11.4575
2.54154447702835,11.46
2.55131964809384,11.4625
2.56598240469208,11.465
2.55620723362659,11.4675
2.5366568914956,11.47
2.5366568914956,11.4725
2.53176930596285,11.475
2.53176930596285,11.4775
2.55131964809384,11.48
2.56598240469208,11.4825
2.55620723362659,11.485
2.5366568914956,11.4875
2.53176930596285,11.49
2.5366568914956,11.4925
2.54643206256109,11.495
2.56598240469208,11.4975
2.56598240469208,11.5
2.56598240469208,11.5025
2.55131964809384,11.505
2.53176930596285,11.5075
2.54154447702835,11.51
2.55131964809384,11.5125
2.56598240469208,11.515
2.56109481915934,11.5175
2.55620723362659,11.52
2.52199413489736,11.5225
2.5366568914956,11.525
2.54643206256109,11.5275
2.57575757575758,11.53
2.57086999022483,11.5325
2.56109481915934,11.535
2.54154447702835,11.5375
2.53176930596285,11.54
2.5366568914956,11.5425
2.55131964809384,11.545
2.58064516129032,11.5475
2.56598240469208,11.55
2.55620723362659,11.5525
2.55131964809384,11.555
2.53176930596285,11.5575
2.54154447702835,11.56
2.56109481915934,11.5625
2.56109481915934,11.565
2.56109481915934,11.5675
2.55620723362659,11.57
2.5366568914956,11.5725
2.5366568914956,11.575
2.54154447702835,11.5775
2.55620723362659,11.58
2.56598240469208,11.5825
2.56598240469208,11.585
2.55620723362659,11.5875
2.52688172043011,11.59
2.54154447702835,11.5925
2.54643206256109,11.595
2.56598240469208,11.5975
2.56598240469208,11.6
2.56109481915934,11.6025
2.54154447702835,11.605
2.52688172043011,11.6075
2.54154447702835,11.61
2.54154447702835,11.6125
2.56598240469208,11.615
2.56598240469208,11.6175
2.57086999022483,11.62
2.54643206256109,11.6225
2.53176930596285,11.625
2.54154447702835,11.6275
2.54154447702835,11.63
2.55620723362659,11.6325
2.56109481915934,11.635
2.55620723362659,11.6375
2.52688172043011,11.64
2.5366568914956,11.6425
2.54643206256109,11.645
2.56598240469208,11.6475
2.57086999022483,11.65
2.56109481915934,11.6525
2.55620723362659,11.655
2.54154447702835,11.6575
2.5366568914956,11.66
2.54154447702835,11.6625
2.55131964809384,11.665
2.56598240469208,11.6675
2.55620723362659,11.67
2.54643206256109,11.6725
2.53176930596285,11.675
2.54154447702835,11.6775
2.54643206256109,11.68
2.56109481915934,11.6825
2.56109481915934,11.685
2.57086999022483,11.6875
2.5366568914956,11.69
2.53176930596285,11.6925
2.54154447702835,11.695
2.55620723362659,11.6975
2.56598240469208,11.7
2.56109481915934,11.7025
2.54154447702835,11.705
2.52688172043011,11.7075
2.53176930596285,11.71
2.55131964809384,11.7125
2.55131964809384,11.715
2.56598240469208,11.7175
2.55620723362659,11.72
2.54643206256109,11.7225
2.54154447702835,11.725
2.5366568914956,11.7275
2.53176930596285,11.73
2.55131964809384,11.7325
2.56109481915934,11.735
2.54643206256109,11.7375
2.5366568914956,11.74
2.52688172043011,11.7425
2.54154447702835,11.745
2.55620723362659,11.7475
2.58064516129032,11.75
2.56598240469208,11.7525
2.55131964809384,11.755
2.54643206256109,11.7575
2.54154447702835,11.76
2.55131964809384,11.7625
2.57086999022483,11.765
2.57575757575758,11.7675
2.56598240469208,11.77
2.56598240469208,11.7725
2.55131964809384,11.775
2.54154447702835,11.7775
2.55131964809384,11.78
2.57086999022483,11.7825
2.57086999022483,11.785
2.56109481915934,11.7875
2.54643206256109,11.79
2.53176930596285,11.7925
2.54154447702835,11.795
2.55131964809384,11.7975
2.56598240469208,11.8
2.56109481915934,11.8025
2.56109481915934,11.805
2.54154447702835,11.8075
2.52688172043011,11.81
2.53176930596285,11.8125
2.53176930596285,11.815
2.53176930596285,11.8175
2.51710654936461,11.82
2.47800586510264,11.8225
2.44868035190616,11.825
2.41935483870968,11.8275
2.41446725317693,11.83
2.40469208211144,11.8325
2.42424242424242,11.835
2.44379276637341,11.8375
2.46823069403715,11.84
2.52199413489736,11.8425
2.6197458455523,11.845
2.71749755620723,11.8475
2.80058651026393,11.85
2.84457478005865,11.8525
2.84457478005865,11.855
2.82013685239492,11.8575
2.7761485826002,11.86
2.73704789833822,11.8625
2.68817204301075,11.865
2.65395894428152,11.8675
2.60508308895406,11.87
2.56598240469208,11.8725
2.51221896383187,11.875
2.47800586510264,11.8775
2.46823069403715,11.88
2.47311827956989,11.8825
2.47311827956989,11.885
2.4633431085044,11.8875
2.44868035190616,11.89
2.44868035190616,11.8925
2.45845552297165,11.895
2.46823069403715,11.8975
2.49266862170088,11.9
2.51221896383187,11.9025
2.50733137829912,11.905
2.50733137829912,11.9075
2.49266862170088,11.91
2.50733137829912,11.9125
2.51710654936461,11.915
2.54154447702835,11.9175
2.54154447702835,11.92
2.53176930596285,11.9225
2.52199413489736,11.925
2.52199413489736,11.9275
2.53176930596285,11.93
2.55620723362659,11.9325
2.55131964809384,11.935
2.55620723362659,11.9375
2.54154447702835,11.94
2.54154447702835,11.9425
2.53176930596285,11.945
2.54154447702835,11.9475
2.55131964809384,11.95
2.56598240469208,11.9525
2.56109481915934,11.955
2.54154447702835,11.9575
2.52688172043011,11.96
2.5366568914956,11.9625
2.5366568914956,11.965
2.56109481915934,11.9675
2.56598240469208,11.97
2.55620723362659,11.9725
2.54154447702835,11.975
2.5366568914956,11.9775
2.54154447702835,11.98
2.55620723362659,11.9825
2.57086999022483,11.985
2.56598240469208,11.9875
2.56598240469208,11.99
2.54154447702835,11.9925
2.5366568914956,11.995
2.54154447702835,11.9975
2.56109481915934,12
2.56598240469208,12.0025
2.56109481915934,12.005
2.56598240469208,12.0075
2.52688172043011,12.01
2.5366568914956,12.0125
2.5366568914956,12.015
2.55620723362659,12.0175
2.56598240469208,12.02
2.56109481915934,12.0225
2.5366568914956,12.025
2.53176930596285,12.0275
2.5366568914956,12.03
2.54154447702835,12.0325
2.57086999022483,12.035
2.56598240469208,12.0375
2.55620723362659,12.04
2.54154447702835,12.0425
2.5366568914956,12.045
2.54643206256109,12.0475
2.55131964809384,12.05
2.58064516129032,12.0525
2.56598240469208,12.055
2.56598240469208,12.0575
2.5366568914956,12.06
2.54154447702835,12.0625
2.55131964809384,12.065
2.58064516129032,12.0675
2.57575757575758,12.07
2.56598240469208,12.0725
2.56109481915934,12.075
2.5366568914956,12.0775
2.54643206256109,12.08
2.55620723362659,12.0825
2.57086999022483,12.085
2.57575757575758,12.0875
2.56598240469208,12.09
2.55131964809384,12.0925
2.54154447702835,12.095
2.55131964809384,12.0975
2.56109481915934,12.1
2.57575757575758,12.1025
2.57575757575758,12.105
2.58064516129032,12.1075
2.54643206256109,12.11
2.54643206256109,12.1125
2.55620723362659,12.115
2.56598240469208,12.1175
2.58064516129032,12.12
2.57086999022483,12.1225
2.56109481915934,12.125
2.54643206256109,12.1275
2.54154447702835,12.13
2.54154447702835,12.1325
2.55131964809384,12.135
2.56598240469208,12.1375
2.55620723362659,12.14
2.54643206256109,12.1425
2.52688172043011,12.145
2.5366568914956,12.1475
2.54154447702835,12.15
2.55131964809384,12.1525
2.57086999022483,12.155
2.56109481915934,12.1575
2.54154447702835,12.16
2.53176930596285,12.1625
2.54154447702835,12.165
2.55131964809384,12.1675
2.55620723362659,12.17
2.56109481915934,12.1725
2.56109481915934,12.175
2.5366568914956,12.1775
2.53176930596285,12.18
2.54154447702835,12.1825
2.56109481915934,12.185
2.56598240469208,12.1875
2.55620723362659,12.19
2.56109481915934,12.1925
2.54643206256109,12.195
2.5366568914956,12.1975
2.54154447702835,12.2
2.56109481915934,12.2025
2.56598240469208,12.205
2.56109481915934,12.2075
2.54643206256109,12.21
2.5366568914956,12.2125
2.54154447702835,12.215
2.54643206256109,12.2175
2.57086999022483,12.22
2.56598240469208,12.2225
2.56598240469208,12.225
2.5366568914956,12.2275
2.53176930596285,12.23
2.54154447702835,12.2325
2.56109481915934,12.235
2.56598240469208,12.2375
2.56109481915934,12.24
2.55131964809384,12.2425
2.5366568914956,12.245
2.5366568914956,12.2475
2.54643206256109,12.25
2.56109481915934,12.2525
2.56598240469208,12.255
2.55620723362659,12.2575
2.54643206256109,12.26
2.52688172043011,12.2625
2.53176930596285,12.265
2.54643206256109,12.2675
2.57086999022483,12.27
2.56109481915934,12.2725
2.55131964809384,12.275
2.5366568914956,12.2775
2.52688172043011,12.28
2.5366568914956,12.2825
2.54643206256109,12.285
2.57086999022483,12.2875
2.56109481915934,12.29
2.54643206256109,12.2925
2.54154447702835,12.295
2.53176930596285,12.2975
2.54154447702835,12.3
2.56109481915934,12.3025
2.56598240469208,12.305
2.56109481915934,12.3075
2.54643206256109,12.31
2.53176930596285,12.3125
2.5366568914956,12.315
2.55620723362659,12.3175
2.55620723362659,12.32
2.56598240469208,12.3225
2.55620723362659,12.325
2.54643206256109,12.3275
2.53176930596285,12.33
2.5366568914956,12.3325
2.55620723362659,12.335
2.56109481915934,12.3375
2.56109481915934,12.34
2.55131964809384,12.3425
2.5366568914956,12.345
2.53176930596285,12.3475
2.54154447702835,12.35
2.55131964809384,12.3525
2.55620723362659,12.355
2.56598240469208,12.3575
2.55620723362659,12.36
2.52688172043011,12.3625
2.54154447702835,12.365
2.54643206256109,12.3675
2.57086999022483,12.37
2.57086999022483,12.3725
2.56109481915934,12.375
2.55131964809384,12.3775
2.53176930596285,12.38
2.5366568914956,12.3825
2.53176930596285,12.385
2.56598240469208,12.3875
2.56598240469208,12.39
2.55620723362659,12.3925
2.54154447702835,12.395
2.5366568914956,12.3975
2.54154447702835,12.4
2.55131964809384,12.4025
2.57086999022483,12.405
2.56109481915934,12.4075
2.55620723362659,12.41
2.5366568914956,12.4125
2.5366568914956,12.415
2.54154447702835,12.4175
2.56109481915934,12.42
2.57086999022483,12.4225
2.56109481915934,12.425
2.55620723362659,12.4275
2.5366568914956,12.43
2.54154447702835,12.4325
2.5366568914956,12.435
2.57575757575758,12.4375
2.57086999022483,12.44
2.55620723362659,12.4425
2.54154447702835,12.445
2.53176930596285,12.4475
2.54154447702835,12.45
2.54643206256109,12.4525
2.55620723362659,12.455
2.56109481915934,12.4575
2.56598240469208,12.46
2.54643206256109,12.4625
2.53176930596285,12.465
2.54154447702835,12.4675
2.54643206256109,12.47
2.56598240469208,12.4725
2.56598240469208,12.475
2.55131964809384,12.4775
2.54154447702835,12.48
2.5366568914956,12.4825
2.54643206256109,12.485
2.56598240469208,12.4875
2.56598240469208,12.49
2.55620723362659,12.4925
2.54643206256109,12.495
2.52199413489736,12.4975
2.5366568914956,12.5
2.53176930596285,12.5025
2.56109481915934,12.505
2.56598240469208,12.5075
2.55620723362659,12.51
2.55131964809384,12.5125
2.5366568914956,12.515
2.54154447702835,12.5175
2.54643206256109,12.52
2.56109481915934,12.5225
2.56598240469208,12.525
2.55620723362659,12.5275
2.53176930596285,12.53
2.53176930596285,12.5325
2.54154447702835,12.535
2.55620723362659,12.5375
2.56598240469208,12.54
2.55620723362659,12.5425
2.54154447702835,12.545
2.54154447702835,12.5475
2.53176930596285,12.55
2.52688172043011,12.5525
2.56109481915934,12.555
2.56109481915934,12.5575
2.55620723362659,12.56
2.5366568914956,12.5625
2.5366568914956,12.565
2.5366568914956,12.5675
2.54154447702835,12.57
2.57086999022483,12.5725
2.57086999022483,12.575
2.56598240469208,12.5775
2.53176930596285,12.58
2.54154447702835,12.5825
2.54643206256109,12.585
2.55620723362659,12.5875
2.56598240469208,12.59
2.56598240469208,12.5925
2.56109481915934,12.595
2.5366568914956,12.5975
2.5366568914956,12.6
2.54643206256109,12.6025
2.56109481915934,12.605
2.57086999022483,12.6075
2.56109481915934,12.61
2.54643206256109,12.6125
2.52688172043011,12.615
2.5366568914956,12.6175
2.54643206256109,12.62
2.55131964809384,12.6225
2.56598240469208,12.625
2.55620723362659,12.6275
2.53176930596285,12.63
2.52688172043011,12.6325
2.52688172043011,12.635
2.53176930596285,12.6375
2.52688172043011,12.64
2.51221896383187,12.6425
2.49266862170088,12.645
2.44379276637341,12.6475
2.40957966764418,12.65
2.39980449657869,12.6525
2.40469208211144,12.655
2.42913000977517,12.6575
2.45845552297165,12.66
2.51221896383187,12.6625
2.55620723362659,12.665
2.64907135874878,12.6675
2.75659824046921,12.67
2.82013685239492,12.6725
2.85923753665689,12.675
2.8494623655914,12.6775
2.82991202346041,12.68
2.76148582600196,12.6825
2.72727272727273,12.685
2.67839687194526,12.6875
2.63929618768328,12.69
2.60508308895406,12.6925
2.55620723362659,12.695
2.50733137829912,12.6975
2.47800586510264,12.7
2.4633431085044,12.7025
2.4633431085044,12.705
2.47800586510264,12.7075
2.4633431085044,12.71
2.46823069403715,12.7125
2.45356793743891,12.715
2.44868035190616,12.7175
2.4633431085044,12.72
2.49755620723363,12.7225
2.50733137829912,12.725
2.50733137829912,12.7275
2.50733137829912,12.73
2.48289345063539,12.7325
2.49755620723363,12.735
2.51221896383187,12.7375
2.52688172043011,12.74
2.54154447702835,12.7425
2.5366568914956,12.745
2.53176930596285,12.7475
2.52199413489736,12.75
2.53176930596285,12.7525
2.53176930596285,12.755
2.57086999022483,12.7575
2.55620723362659,12.76
2.55131964809384,12.7625
2.54643206256109,12.765
2.52688172043011,12.7675
2.5366568914956,12.77
2.55620723362659,12.7725
2.56109481915934,12.775
2.56109481915934,12.7775
2.54643206256109,12.78
2.54154447702835,12.7825
2.5366568914956,12.785
2.54643206256109,12.7875
2.55131964809384,12.79
2.56109481915934,12.7925
2.55620723362659,12.795
2.54154447702835,12.7975
2.5366568914956,12.8
2.5366568914956,12.8025
2.55620723362659,12.805
2.57575757575758,12.8075
2.57086999022483,12.81
2.56109481915934,12.8125
2.54154447702835,12.815
2.53176930596285,12.8175
2.54154447702835,12.82
2.55131964809384,12.8225
2.56598240469208,12.825
2.56109481915934,12.8275
2.55131964809384,12.83
2.54154447702835,12.8325
2.53176930596285,12.835
2.54154447702835,12.8375
2.55620723362659,12.84
2.56598240469208,12.8425
2.56109481915934,12.845
2.55131964809384,12.8475
2.54154447702835,12.85
2.54154447702835,12.8525
2.56109481915934,12.855
2.56109481915934,12.8575
2.57086999022483,12.86
2.56109481915934,12.8625
2.56109481915934,12.865
2.52688172043011,12.8675
2.54154447702835,12.87
2.54154447702835,12.8725
2.55620723362659,12.875
2.56109481915934,12.8775
2.55131964809384,12.88
2.53176930596285,12.8825
2.5366568914956,12.885
2.54643206256109,12.8875
2.55620723362659,12.89
2.58553274682307,12.8925
2.57086999022483,12.895
2.56598240469208,12.8975
2.53176930596285,12.9
2.54154447702835,12.9025
2.55131964809384,12.905
2.56598240469208,12.9075
2.57575757575758,12.91
2.57086999022483,12.9125
2.55131964809384,12.915
2.54154447702835,12.9175
